Wavelength	09/27/123 at 12:21:10
350	 0.109230196373961 
351	 0.109308302306762 
352	 0.10982179476581 
353	 0.110321661494185 
354	 0.110250924337358 
355	 0.110902742654218 
356	 0.111526651648211 
357	 0.111703314161808 
358	 0.112094476265792 
359	 0.112789933058121 
360	 0.113504718031153 
361	 0.113828809246965 
362	 0.114145428770934 
363	 0.114593102272449 
364	 0.115121033473124 
365	 0.11533269937195 
366	 0.115599115064274 
367	 0.115959593180555 
368	 0.116327457915717 
369	 0.116981762675 
370	 0.117517032833342 
371	 0.117803867377552 
372	 0.118497074059948 
373	 0.119315080244211 
374	 0.120054298906522 
375	 0.120556901964366 
376	 0.12105243094386 
377	 0.121840633732052 
378	 0.122857032357466 
379	 0.123161684241817 
380	 0.123479422668059 
381	 0.124087335270356 
382	 0.12502923776821 
383	 0.126104758067089 
384	 0.127035456088647 
385	 0.127717868255602 
386	 0.1284752752802 
387	 0.129128785919209 
388	 0.12966678046686 
389	 0.130176122940661 
390	 0.130887165364892 
391	 0.131768515457662 
392	 0.132645638419453 
393	 0.133099603123635 
394	 0.133755051436185 
395	 0.134606502082201 
396	 0.135391712165504 
397	 0.135972882722737 
398	 0.136432121046554 
399	 0.136900061496576 
400	 0.13759969899977 
401	 0.138103547576411 
402	 0.13842556651217 
403	 0.138754728364855 
404	 0.139249780685198 
405	 0.139873302324842 
406	 0.140533017256989 
407	 0.141068437556037 
408	 0.141660187953438 
409	 0.14228248146125 
410	 0.142838807555302 
411	 0.143287425086819 
412	 0.143796618324936 
413	 0.144426878498556 
414	 0.145038460805368 
415	 0.145589122082433 
416	 0.146130158129815 
417	 0.146721947279983 
418	 0.147190462299789 
419	 0.147753085315056 
420	 0.148487209551112 
421	 0.14921822515003 
422	 0.149838390147785 
423	 0.150397089687776 
424	 0.150992464446678 
425	 0.151555064504545 
426	 0.152197959252631 
427	 0.15294546030807 
428	 0.153671472668145 
429	 0.15439211869026 
430	 0.155108071016881 
431	 0.155823258748764 
432	 0.15654880272532 
433	 0.157251585964571 
434	 0.157894896048945 
435	 0.158433152095797 
436	 0.159123831917612 
437	 0.159843841885264 
438	 0.160411221671751 
439	 0.161028719184139 
440	 0.161709405462481 
441	 0.162400499659706 
442	 0.162975731604447 
443	 0.163572068939983 
444	 0.164172810236982 
445	 0.164740427599296 
446	 0.165353944967455 
447	 0.165980974120122 
448	 0.16656990430097 
449	 0.167065337766549 
450	 0.167576743041641 
451	 0.168106734864348 
452	 0.168622216082768 
453	 0.169107046925084 
454	 0.169550723318983 
455	 0.16998231583205 
456	 0.170479592055585 
457	 0.170963225248865 
458	 0.171412106043466 
459	 0.171826587131064 
460	 0.172201810984952 
461	 0.17260949090861 
462	 0.173042293958647 
463	 0.173393260714363 
464	 0.173788595105905 
465	 0.174188928713931 
466	 0.174545998014413 
467	 0.174959929002776 
468	 0.175355456274216 
469	 0.175729571027095 
470	 0.176147759732214 
471	 0.176506886971399 
472	 0.176881064884736 
473	 0.177319988922013 
474	 0.177667269196725 
475	 0.178046999454993 
476	 0.178473035465058 
477	 0.178874652495338 
478	 0.179342260089423 
479	 0.179839259115253 
480	 0.180317706340487 
481	 0.180749559730958 
482	 0.181191659263015 
483	 0.181663116197856 
484	 0.182151025147489 
485	 0.182613839407101 
486	 0.183155205711388 
487	 0.183814032248649 
488	 0.184419819516518 
489	 0.184995344321656 
490	 0.185552897045685 
491	 0.186101237621217 
492	 0.186616506004667 
493	 0.187186975669623 
494	 0.187841834468064 
495	 0.188429727174578 
496	 0.189046545662218 
497	 0.189652797243847 
498	 0.19017317693814 
499	 0.190790074723961 
500	 0.191456634944336 
501	 0.192121774967979 
502	 0.192765610011959 
503	 0.193416768726159 
504	 0.194048494569387 
505	 0.194635697834043 
506	 0.195282341748157 
507	 0.195929178288206 
508	 0.196550922573621 
509	 0.197198786726244 
510	 0.197855099208383 
511	 0.198521585606916 
512	 0.199192019543012 
513	 0.199805256684762 
514	 0.200434298268049 
515	 0.201068428098233 
516	 0.201580432223732 
517	 0.202243396091817 
518	 0.203010512964055 
519	 0.203738580727119 
520	 0.20437439925901 
521	 0.204996176194186 
522	 0.205653416941596 
523	 0.206365734430252 
524	 0.207065863316574 
525	 0.207675824662603 
526	 0.208210770263907 
527	 0.208984159515963 
528	 0.20978266294431 
529	 0.210496857240042 
530	 0.211123940981697 
531	 0.211771278614067 
532	 0.212472666730307 
533	 0.213223360809385 
534	 0.213976988624363 
535	 0.214736273683551 
536	 0.215481918943679 
537	 0.216191738459172 
538	 0.216984115026188 
539	 0.217779781006982 
540	 0.218539391575154 
541	 0.21937265560802 
542	 0.22020006800994 
543	 0.221014998274351 
544	 0.221835276563088 
545	 0.222597119538601 
546	 0.223395388826925 
547	 0.224267153018108 
548	 0.225124224481246 
549	 0.225984536448797 
550	 0.226863581729011 
551	 0.227769705312382 
552	 0.228642882585323 
553	 0.229503285495701 
554	 0.230370957686437 
555	 0.231267144109214 
556	 0.232139612489523 
557	 0.23301949972394 
558	 0.233933692195126 
559	 0.234810510394374 
560	 0.235658666938985 
561	 0.236504716443336 
562	 0.237397825064244 
563	 0.23814120343387 
564	 0.238833329919998 
565	 0.23959166051979 
566	 0.240371018831867 
567	 0.241204376500541 
568	 0.242062251692344 
569	 0.242877613832696 
570	 0.243663065570576 
571	 0.24443426961085 
572	 0.245178384546437 
573	 0.245836563213556 
574	 0.246506926223818 
575	 0.247210948688698 
576	 0.247927152282668 
577	 0.248681290841696 
578	 0.249398223108176 
579	 0.250042656650689 
580	 0.250645968982527 
581	 0.251251995067191 
582	 0.251834729801966 
583	 0.25236097884098 
584	 0.25292120671103 
585	 0.253522631003844 
586	 0.254144653187473 
587	 0.254759611713465 
588	 0.255272180166921 
589	 0.255762648671641 
590	 0.256281915873156 
591	 0.256722991529004 
592	 0.257224335466729 
593	 0.257808721818632 
594	 0.258413077103518 
595	 0.259103535633979 
596	 0.259790517499448 
597	 0.260408017860108 
598	 0.260965915780421 
599	 0.261493089640748 
600	 0.261979416990322 
601	 0.262416045216868 
602	 0.262830118489796 
603	 0.26316976155631 
604	 0.263447350307669 
605	 0.263768413576211 
606	 0.264035385901409 
607	 0.264274111405229 
608	 0.264533345054377 
609	 0.264808170200479 
610	 0.265067437709107 
611	 0.265314345026297 
612	 0.265578161835151 
613	 0.265770096528001 
614	 0.265972492679269 
615	 0.266248904073898 
616	 0.266513169853287 
617	 0.266780723119171 
618	 0.267041628078799 
619	 0.267282116016947 
620	 0.267487572874471 
621	 0.267693350932409 
622	 0.267922223679578 
623	 0.268176152839408 
624	 0.268442734120368 
625	 0.268729248779021 
626	 0.269030983357557 
627	 0.269243852144157 
628	 0.269445596405691 
629	 0.269669333551661 
630	 0.269882462728629 
631	 0.270140700504706 
632	 0.270377178272204 
633	 0.270541706151488 
634	 0.270748803392739 
635	 0.270959867601864 
636	 0.271162595721093 
637	 0.271362295459452 
638	 0.271504542105377 
639	 0.271670562418747 
640	 0.271890382546573 
641	 0.272048452906442 
642	 0.272187999613067 
643	 0.272318496889066 
644	 0.272444651845581 
645	 0.272576321777485 
646	 0.272689193699668 
647	 0.272801475078761 
648	 0.272982561601935 
649	 0.273211045163621 
650	 0.27338020911622 
651	 0.273452051937188 
652	 0.273657119091076 
653	 0.273851565283587 
654	 0.273971126488631 
655	 0.274024420023903 
656	 0.274364298803417 
657	 0.274657719007526 
658	 0.274712314342568 
659	 0.27475001678332 
660	 0.274906849470135 
661	 0.27509529690242 
662	 0.27517972791203 
663	 0.275244091190376 
664	 0.275334258431628 
665	 0.275444748784438 
666	 0.275511956603267 
667	 0.275614430002442 
668	 0.275727883263948 
669	 0.275826195741931 
670	 0.27593786103447 
671	 0.276095318079093 
672	 0.27624457838868 
673	 0.276308415966346 
674	 0.276443406661525 
675	 0.276606971615057 
676	 0.276771611594079 
677	 0.276978488299469 
678	 0.27713711842755 
679	 0.277315647613636 
680	 0.277572050958035 
681	 0.27772651158811 
682	 0.277862656386432 
683	 0.278084324477304 
684	 0.27847300597335 
685	 0.278739239124031 
686	 0.279127276090375 
687	 0.279792466759038 
688	 0.280345062675393 
689	 0.280691791422205 
690	 0.280945342119681 
691	 0.281244587961688 
692	 0.281521514038623 
693	 0.281875619617894 
694	 0.28232373255406 
695	 0.282778456852394 
696	 0.283246604641236 
697	 0.283626575891592 
698	 0.283906804426363 
699	 0.284250766065839 
700	 0.284652854617207 
701	 0.285058153067883 
702	 0.285404022358969 
703	 0.285750495722974 
704	 0.286115411018813 
705	 0.28645465150391 
706	 0.286655349976503 
707	 0.286955711254174 
708	 0.287270549810792 
709	 0.287505851579185 
710	 0.28772139306489 
711	 0.287963105445944 
712	 0.288230126631784 
713	 0.288497223477557 
714	 0.288698337368476 
715	 0.2887483050321 
716	 0.288668066399175 
717	 0.288625138534119 
718	 0.288775412509299 
719	 0.289140100818975 
720	 0.289570412520762 
721	 0.289807900381872 
722	 0.28974963664998 
723	 0.289587972984538 
724	 0.28965639113879 
725	 0.28982631901127 
726	 0.290033977353948 
727	 0.290211675458567 
728	 0.290274462678781 
729	 0.290345056660987 
730	 0.290483817677622 
731	 0.290693249225592 
732	 0.290897278319191 
733	 0.29104187463158 
734	 0.29112880485685 
735	 0.29119731902272 
736	 0.291341035101792 
737	 0.29143584238423 
738	 0.291459095970351 
739	 0.291551830221677 
740	 0.291666046400562 
741	 0.291833778123137 
742	 0.292054560951087 
743	 0.292192434416699 
744	 0.292301550214674 
745	 0.292388726054658 
746	 0.292446629525892 
747	 0.292555599451597 
748	 0.292686682740956 
749	 0.292791468399079 
750	 0.292822186517383 
751	 0.292951435660895 
752	 0.293113484742783 
753	 0.293237093733425 
754	 0.293416942562946 
755	 0.293634454846528 
756	 0.293872099972049 
757	 0.29408507919261 
758	 0.293978014978166 
759	 0.293832828298663 
760	 0.294345706879644 
761	 0.296367358859997 
762	 0.296944903055947 
763	 0.296696202138565 
764	 0.296552307380196 
765	 0.296360403592818 
766	 0.29610365635664 
767	 0.295861348451076 
768	 0.295703948953763 
769	 0.295567414921455 
770	 0.295524312132206 
771	 0.295586725650917 
772	 0.295711046006017 
773	 0.29585543456153 
774	 0.295966490457404 
775	 0.296047656594509 
776	 0.296206944022161 
777	 0.296306057354562 
778	 0.296380071875619 
779	 0.296507832548743 
780	 0.296745494891503 
781	 0.296896836911009 
782	 0.296939566727776 
783	 0.296980018293214 
784	 0.297148049362444 
785	 0.297341327352086 
786	 0.297469511085635 
787	 0.297505832122176 
788	 0.297604305144727 
789	 0.297739025968489 
790	 0.297875092374834 
791	 0.298090501136556 
792	 0.298240298530621 
793	 0.298339045248607 
794	 0.29846596101024 
795	 0.298628482280537 
796	 0.298753030098028 
797	 0.298841307400506 
798	 0.298959651052458 
799	 0.299039726125936 
800	 0.299136316942813 
801	 0.2992799318262 
802	 0.29943468063801 
803	 0.299553289600975 
804	 0.299672235359988 
805	 0.299826460961513 
806	 0.29996867336574 
807	 0.300025426607059 
808	 0.300086986455694 
809	 0.300277425634694 
810	 0.300393839714592 
811	 0.300393039923481 
812	 0.300321545445168 
813	 0.300317768165332 
814	 0.300407450544745 
815	 0.300591040790371 
816	 0.300836883529625 
817	 0.301084261787038 
818	 0.301333645096934 
819	 0.301520242773751 
820	 0.301593138452347 
821	 0.301555008125346 
822	 0.301545121131597 
823	 0.301759113872611 
824	 0.302274893596118 
825	 0.302418544763166 
826	 0.302425574134014 
827	 0.302434623749153 
828	 0.302442147582476 
829	 0.302650407498144 
830	 0.302863639561695 
831	 0.302965719701882 
832	 0.303091363882848 
833	 0.3032944149362 
834	 0.303516935903084 
835	 0.303689498492242 
836	 0.30377255250875 
837	 0.303854034721131 
838	 0.303937871355064 
839	 0.304004081674199 
840	 0.30413471727859 
841	 0.304223932267429 
842	 0.30429448679934 
843	 0.304454812719977 
844	 0.304601018914636 
845	 0.304716398336286 
846	 0.304792910267072 
847	 0.304828515520869 
848	 0.304900479636855 
849	 0.305105481978413 
850	 0.305392394287394 
851	 0.305352562338052 
852	 0.305310944760363 
853	 0.305323050953564 
854	 0.305399219173684 
855	 0.305742671359854 
856	 0.306040184257781 
857	 0.306102304055127 
858	 0.3059237693184 
859	 0.306018827341558 
860	 0.306222445270246 
861	 0.306390569062973 
862	 0.306463471730999 
863	 0.306535355658237 
864	 0.306536583861865 
865	 0.306490443788083 
866	 0.306606786455449 
867	 0.306897010652404 
868	 0.307240821313761 
869	 0.307488925941786 
870	 0.307509350541974 
871	 0.307479171577893 
872	 0.307528636913524 
873	 0.307695258139105 
874	 0.307698116658541 
875	 0.307753797001069 
876	 0.307921419495625 
877	 0.308145342906884 
878	 0.308349473140222 
879	 0.308381578251124 
880	 0.30836148376689 
881	 0.308594731797329 
882	 0.308812153743782 
883	 0.308921856480136 
884	 0.308941258245251 
885	 0.308992721847389 
886	 0.30910618471263 
887	 0.309245153139859 
888	 0.309351844352812 
889	 0.309331497003551 
890	 0.309311372754192 
891	 0.309377465839649 
892	 0.309504333696345 
893	 0.309436638256633 
894	 0.309298418772687 
895	 0.309079166179652 
896	 0.308851870410025 
897	 0.309182531794624 
898	 0.309520407676935 
899	 0.309665210582667 
900	 0.309708029240003 
901	 0.309992845858549 
902	 0.310402247629119 
903	 0.310620552884554 
904	 0.3103520854582 
905	 0.310386361434781 
906	 0.310477922920128 
907	 0.310457905607536 
908	 0.310348112002083 
909	 0.31043705795584 
910	 0.310512359586566 
911	 0.310553998676041 
912	 0.310887125942851 
913	 0.311058177878097 
914	 0.311041970899693 
915	 0.311021723670945 
916	 0.311327577054547 
917	 0.311642710465851 
918	 0.311955791545555 
919	 0.31225114342953 
920	 0.312334809705953 
921	 0.312404784912472 
922	 0.312428261994092 
923	 0.312312499797363 
924	 0.311975619501174 
925	 0.311967189742442 
926	 0.31186730348988 
927	 0.311050294212554 
928	 0.310419018349834 
929	 0.309873354218963 
930	 0.309012907061524 
931	 0.307548316130685 
932	 0.307635502110087 
933	 0.307480911978901 
934	 0.307047866853569 
935	 0.307881620821454 
936	 0.308705767479781 
937	 0.309736737389096 
938	 0.310798773596985 
939	 0.311370958593084 
940	 0.311415762029 
941	 0.310848029694492 
942	 0.310217508959363 
943	 0.310502702751477 
944	 0.310449014484864 
945	 0.310426482341651 
946	 0.310460580598069 
947	 0.30995955873422 
948	 0.310266474085337 
949	 0.31130177107026 
950	 0.31231433438567 
951	 0.312183604399533 
952	 0.311596333183712 
953	 0.311336724100162 
954	 0.311701030823648 
955	 0.312139894599549 
956	 0.312885494510846 
957	 0.313152273565944 
958	 0.312916380074369 
959	 0.31379320879499 
960	 0.313790246840191 
961	 0.313664919293102 
962	 0.314223206267131 
963	 0.315014290855662 
964	 0.315532758009064 
965	 0.315831216054578 
966	 0.315972811975375 
967	 0.315613043554912 
968	 0.315563475124564 
969	 0.316031165266108 
970	 0.316751458441131 
971	 0.316815576591271 
972	 0.316632424057701 
973	 0.316558255133737 
974	 0.316617155385618 
975	 0.315790474774479 
976	 0.316236555446985 
977	 0.317158086022057 
978	 0.317273971536749 
979	 0.317552413057946 
980	 0.317548924392806 
981	 0.317270161438038 
982	 0.317109014007545 
983	 0.318228748440654 
984	 0.318550951197256 
985	 0.318256039559676 
986	 0.318220848817027 
987	 0.318289193495088 
988	 0.318441208815499 
989	 0.318789067881912 
990	 0.319333690557847 
991	 0.319544090612988 
992	 0.319670900976498 
993	 0.31992378457875 
994	 0.320270091781922 
995	 0.319829748697963 
996	 0.31995281683083 
997	 0.320168802298232 
998	 0.319688310917138 
999	 0.319701177901411 
1000	 0.31926662739141 
1001	 0.330230399401261 
1002	 0.330335716213425 
1003	 0.330460432961349 
1004	 0.330603246608812 
1005	 0.330710566561092 
1006	 0.330756141665077 
1007	 0.33081125584699 
1008	 0.330845825999848 
1009	 0.330820595818409 
1010	 0.330939425153464 
1011	 0.331149481340248 
1012	 0.331226032109985 
1013	 0.331334547252617 
1014	 0.331361102266384 
1015	 0.331286448836992 
1016	 0.331310315072745 
1017	 0.331429757500819 
1018	 0.331599690716756 
1019	 0.331749533992984 
1020	 0.331895874312967 
1021	 0.332207032454832 
1022	 0.332379534960751 
1023	 0.332413670133087 
1024	 0.332562907975972 
1025	 0.332574800532495 
1026	 0.332602729662112 
1027	 0.332667303853309 
1028	 0.332801972097219 
1029	 0.333002920218763 
1030	 0.332992048922228 
1031	 0.333036071767161 
1032	 0.333080331922754 
1033	 0.333145997359098 
1034	 0.333069277117613 
1035	 0.333186095567371 
1036	 0.333326025939896 
1037	 0.333258905151733 
1038	 0.333307219722431 
1039	 0.333303562509201 
1040	 0.33330861454375 
1041	 0.33342818637736 
1042	 0.333511925728933 
1043	 0.333690203093557 
1044	 0.333812992634114 
1045	 0.333897346883701 
1046	 0.333939417745046 
1047	 0.334036356822438 
1048	 0.334239454174151 
1049	 0.334433125282625 
1050	 0.334586393755617 
1051	 0.334741124959493 
1052	 0.334752565362667 
1053	 0.334766273373987 
1054	 0.334693129480017 
1055	 0.334683912493641 
1056	 0.334642710596007 
1057	 0.33465093242117 
1058	 0.334718919597958 
1059	 0.334868980947782 
1060	 0.335091116881997 
1061	 0.335239719220777 
1062	 0.335517734217954 
1063	 0.335459197713343 
1064	 0.335461446272106 
1065	 0.335471871800628 
1066	 0.335403730512297 
1067	 0.335516601883563 
1068	 0.335514052480431 
1069	 0.335730118306317 
1070	 0.33582168685051 
1071	 0.335794685623653 
1072	 0.335962680735314 
1073	 0.336305158575077 
1074	 0.336381273683988 
1075	 0.336400278095053 
1076	 0.336601788432092 
1077	 0.33658051480551 
1078	 0.336542706394669 
1079	 0.336762504297622 
1080	 0.33695212603775 
1081	 0.337068935200455 
1082	 0.337095831304803 
1083	 0.3371211413809 
1084	 0.337113021692508 
1085	 0.337141562197055 
1086	 0.337079493268272 
1087	 0.33713787139803 
1088	 0.337249962160788 
1089	 0.337360065992348 
1090	 0.337484549564619 
1091	 0.337693278883044 
1092	 0.337921561141686 
1093	 0.33805796820519 
1094	 0.338079383688766 
1095	 0.338156875082171 
1096	 0.338172802886107 
1097	 0.338075944774001 
1098	 0.338104070458361 
1099	 0.33819990321987 
1100	 0.338235885446047 
1101	 0.338272824544427 
1102	 0.338303173711533 
1103	 0.338343987944183 
1104	 0.338355755957419 
1105	 0.338372040325076 
1106	 0.338391114744231 
1107	 0.338512229100991 
1108	 0.338339309219787 
1109	 0.338223316991574 
1110	 0.338109788119311 
1111	 0.338046423729395 
1112	 0.337940101578336 
1113	 0.337880025119149 
1114	 0.337949668483299 
1115	 0.337921836919016 
1116	 0.33776218631619 
1117	 0.337703719417087 
1118	 0.337778841050663 
1119	 0.337695815320952 
1120	 0.337577491167027 
1121	 0.33741222401106 
1122	 0.336890482574183 
1123	 0.336635613212625 
1124	 0.33649500636025 
1125	 0.336478868143535 
1126	 0.336583384706064 
1127	 0.336986500104915 
1128	 0.337236262647447 
1129	 0.337578324936212 
1130	 0.33772651896481 
1131	 0.337923944570483 
1132	 0.337814840718496 
1133	 0.337092630805918 
1134	 0.337109171045545 
1135	 0.337413374651399 
1136	 0.337552922605268 
1137	 0.338083845705435 
1138	 0.338428494555677 
1139	 0.338661593039567 
1140	 0.338562132410256 
1141	 0.338726220089625 
1142	 0.339113133371325 
1143	 0.33915557349202 
1144	 0.338895475117528 
1145	 0.339025856344691 
