Wavelength	09/27/123 at 12:25:06
350	 6.76705050777343E-02 
351	 0.068091661560624 
352	 6.88136084465469E-02 
353	 6.95074603372753E-02 
354	 6.97029563525176E-02 
355	 7.04826542686995E-02 
356	 7.14469222081695E-02 
357	 7.22788761588685E-02 
358	 7.31669361673123E-02 
359	 7.41000560851021E-02 
360	 7.50520356554635E-02 
361	 7.59763669691343E-02 
362	 7.67676212369395E-02 
363	 7.76152648215736E-02 
364	 7.86508840813365E-02 
365	 7.98376077103642E-02 
366	 8.11010503940498E-02 
367	 8.24378856417246E-02 
368	 8.39086086933832E-02 
369	 8.58169761870514E-02 
370	 8.77483036368483E-02 
371	 8.94863825305414E-02 
372	 9.13634902841111E-02 
373	 9.37356813606443E-02 
374	 0.096403658836689 
375	 9.89140629149132E-02 
376	 0.101651584714446 
377	 0.104832526012273 
378	 0.108400451151336 
379	 0.111682739238377 
380	 0.115442998660032 
381	 0.119873350806234 
382	 0.124840426931551 
383	 0.129879386578423 
384	 0.13510944875472 
385	 0.140615474957665 
386	 0.146336728046423 
387	 0.15244565657223 
388	 0.158873852361717 
389	 0.165502146701265 
390	 0.17240890490638 
391	 0.179809920613132 
392	 0.187620300942977 
393	 0.195327361345199 
394	 0.202873766435447 
395	 0.210185621116621 
396	 0.217162557734515 
397	 0.223697227337921 
398	 0.229673228587418 
399	 0.235184138620863 
400	 0.240722056419169 
401	 0.245861343935612 
402	 0.250830776009135 
403	 0.256011472357594 
404	 0.260958946909906 
405	 0.265706808762747 
406	 0.270228972603441 
407	 0.274371725761295 
408	 0.278038414676386 
409	 0.281289884427944 
410	 0.284252603206118 
411	 0.286920194189306 
412	 0.28923262730945 
413	 0.291238729249012 
414	 0.293151233134986 
415	 0.295012906102 
416	 0.296796743040967 
417	 0.298468791143128 
418	 0.300277975577215 
419	 0.302095507868843 
420	 0.30387897222437 
421	 0.305800144276632 
422	 0.307703377079479 
423	 0.309617003279471 
424	 0.311606194141398 
425	 0.313587621892305 
426	 0.315518173896091 
427	 0.317425565560212 
428	 0.319445640632446 
429	 0.321499207588489 
430	 0.323548116334154 
431	 0.325610452143509 
432	 0.327904544520205 
433	 0.330381982147883 
434	 0.332966401117606 
435	 0.335590749885758 
436	 0.33834797832379 
437	 0.341202245496521 
438	 0.344065530655526 
439	 0.346857570532497 
440	 0.34953402595796 
441	 0.352042794328822 
442	 0.354305458585357 
443	 0.356498067761677 
444	 0.358538788723436 
445	 0.360335836475492 
446	 0.36211934687753 
447	 0.363795661936896 
448	 0.365300536596851 
449	 0.366660383141091 
450	 0.367927844828977 
451	 0.369138934109373 
452	 0.370296914823754 
453	 0.37132997452123 
454	 0.372302777171997 
455	 0.373216539116081 
456	 0.374000942006993 
457	 0.374734367528387 
458	 0.375456339879834 
459	 0.376176447103885 
460	 0.376792423596788 
461	 0.377395352175732 
462	 0.378017590284105 
463	 0.378587580136791 
464	 0.379119134348938 
465	 0.379625141667439 
466	 0.380108337799465 
467	 0.380550579085031 
468	 0.380934776325449 
469	 0.381246847974548 
470	 0.381482532077698 
471	 0.381699264813714 
472	 0.381921941834951 
473	 0.382138631381647 
474	 0.382276106871462 
475	 0.382333780191852 
476	 0.382355227145312 
477	 0.382411448326353 
478	 0.382409221843398 
479	 0.382378606389442 
480	 0.3823494158645 
481	 0.38225063050938 
482	 0.382124513383211 
483	 0.382010255073349 
484	 0.381932547806785 
485	 0.381737226814372 
486	 0.38153462019619 
487	 0.381385377142858 
488	 0.381110208714806 
489	 0.380818611695157 
490	 0.380538593755372 
491	 0.380248575311349 
492	 0.3798904902002 
493	 0.379456053252747 
494	 0.378968628205164 
495	 0.378425902322164 
496	 0.377917519738047 
497	 0.377392643028344 
498	 0.37674385800884 
499	 0.376017138742853 
500	 0.375255545529566 
501	 0.374450272948451 
502	 0.373456400310571 
503	 0.372473639729876 
504	 0.371454307513945 
505	 0.37028867810867 
506	 0.369146877791071 
507	 0.367927994655556 
508	 0.366578208962951 
509	 0.365173036460313 
510	 0.363679944159268 
511	 0.362115743340028 
512	 0.360490229098159 
513	 0.358792590637536 
514	 0.356976574175768 
515	 0.355013474493553 
516	 0.352914299518775 
517	 0.350832204739713 
518	 0.348755815219321 
519	 0.346632475530239 
520	 0.344415844195088 
521	 0.342153557397049 
522	 0.339869798459144 
523	 0.337608615494371 
524	 0.335253778020058 
525	 0.332813905661663 
526	 0.330326775441619 
527	 0.327810054022874 
528	 0.325312233385141 
529	 0.322852618654443 
530	 0.320357471436015 
531	 0.317792610978993 
532	 0.31517148042113 
533	 0.312540063448324 
534	 0.30988746241749 
535	 0.307272634398675 
536	 0.304658217585875 
537	 0.301949515331937 
538	 0.299203047026804 
539	 0.296411826407945 
540	 0.293580883217198 
541	 0.290753588225584 
542	 0.287872662189229 
543	 0.28498982576323 
544	 0.282145889746663 
545	 0.279265883819262 
546	 0.276362345975843 
547	 0.273452578953846 
548	 0.270538206792037 
549	 0.267661663971409 
550	 0.264834899739929 
551	 0.262026769432389 
552	 0.259183744926001 
553	 0.256352297404517 
554	 0.253570909621992 
555	 0.250845765142296 
556	 0.248120861573015 
557	 0.245401079424272 
558	 0.242733373798227 
559	 0.240131204055587 
560	 0.237609829048673 
561	 0.235199453587373 
562	 0.232917778907601 
563	 0.230667206927755 
564	 0.228466665139614 
565	 0.226350710129696 
566	 0.224301486378015 
567	 0.222377911131481 
568	 0.22056327446043 
569	 0.218788270891759 
570	 0.217161223489986 
571	 0.21560850387865 
572	 0.214079864160101 
573	 0.212627249625038 
574	 0.211242340277411 
575	 0.209924066203232 
576	 0.208695222943076 
577	 0.207563457559921 
578	 0.206489153375281 
579	 0.20546060078383 
580	 0.204500348458221 
581	 0.203567010944444 
582	 0.202654051224692 
583	 0.201765339602995 
584	 0.200888328454703 
585	 0.199994537373098 
586	 0.199128027981623 
587	 0.198399354834038 
588	 0.197629110077113 
589	 0.196820081300706 
590	 0.196029453099417 
591	 0.195163030216962 
592	 0.194305527489122 
593	 0.193480436675941 
594	 0.192706327477701 
595	 0.191929471044938 
596	 0.191112608559417 
597	 0.190261801010742 
598	 0.189480309601194 
599	 0.18869052608547 
600	 0.187869578593004 
601	 0.187029727101663 
602	 0.18620338553898 
603	 0.185408084409662 
604	 0.184663862097601 
605	 0.18400552604506 
606	 0.183285970473435 
607	 0.182576446808032 
608	 0.181975412300719 
609	 0.181409542498495 
610	 0.180858516549387 
611	 0.180332587580366 
612	 0.179856742667661 
613	 0.179402402493865 
614	 0.178986155296937 
615	 0.178614187772918 
616	 0.178248486470118 
617	 0.17792414405949 
618	 0.177627617428147 
619	 0.177309733812182 
620	 0.176998641046628 
621	 0.176739955929364 
622	 0.176526139472566 
623	 0.176253036348056 
624	 0.176046312102132 
625	 0.175851699209853 
626	 0.175582043569585 
627	 0.175364020860699 
628	 0.175146181573605 
629	 0.174917614031024 
630	 0.174719589033019 
631	 0.174504234685102 
632	 0.174259553615321 
633	 0.174004190564852 
634	 0.173828956020656 
635	 0.17368693659099 
636	 0.173540234231738 
637	 0.173371568756096 
638	 0.173278731765222 
639	 0.173245575696605 
640	 0.173243529467234 
641	 0.173251057496953 
642	 0.173321195929518 
643	 0.173388648575137 
644	 0.173385758313366 
645	 0.173490416542126 
646	 0.173660408600851 
647	 0.173848708037336 
648	 0.174023564549045 
649	 0.174276624682741 
650	 0.174539024021617 
651	 0.174754220720737 
652	 0.17502516746808 
653	 0.175313930874697 
654	 0.17561645401869 
655	 0.175967021320882 
656	 0.176492161534064 
657	 0.176949832649807 
658	 0.17722092529104 
659	 0.177496813731084 
660	 0.177826076715155 
661	 0.17818153116753 
662	 0.178502637605628 
663	 0.178716652246604 
664	 0.17889297888954 
665	 0.179039646586825 
666	 0.179094828570219 
667	 0.179149300405054 
668	 0.179157770573547 
669	 0.179092097171761 
670	 0.179054460547368 
671	 0.178978706461205 
672	 0.178791649368223 
673	 0.178456251325732 
674	 0.178250759779347 
675	 0.178014064841978 
676	 0.17766725492706 
677	 0.177318734994993 
678	 0.176978137919348 
679	 0.176639247935199 
680	 0.176294997462174 
681	 0.175968458398291 
682	 0.17553564060387 
683	 0.175040152596856 
684	 0.174642219001051 
685	 0.174225461538958 
686	 0.173847077882091 
687	 0.17350991024291 
688	 0.173046394165406 
689	 0.172414707489254 
690	 0.171690253171694 
691	 0.17097935142262 
692	 0.170155602602652 
693	 0.169397938737507 
694	 0.168725353029087 
695	 0.167997934527457 
696	 0.167275397339218 
697	 0.166528815580004 
698	 0.165741074724656 
699	 0.164992875325722 
700	 0.164298842468686 
701	 0.163610435180983 
702	 0.162864458043691 
703	 0.162108296590467 
704	 0.161464829651278 
705	 0.160916136218918 
706	 0.160308646100308 
707	 0.159835625096694 
708	 0.159446489665191 
709	 0.159075837437834 
710	 0.158759373022663 
711	 0.158517284880026 
712	 0.158391045190211 
713	 0.15842229886035 
714	 0.158517223661173 
715	 0.158579101225624 
716	 0.15863113703769 
717	 0.15886764236971 
718	 0.159274655810834 
719	 0.159790559629716 
720	 0.16031738103803 
721	 0.160850005493174 
722	 0.1613524519294 
723	 0.16190014927029 
724	 0.162555547391316 
725	 0.163362310262194 
726	 0.16424583426764 
727	 0.165191301392643 
728	 0.166231904849149 
729	 0.16730223222494 
730	 0.168450643240641 
731	 0.169712049354698 
732	 0.171017979903948 
733	 0.172377914854136 
734	 0.173830149048181 
735	 0.175419101332986 
736	 0.177186317484669 
737	 0.179103462883397 
738	 0.181146527319344 
739	 0.183292960503479 
740	 0.185714491942214 
741	 0.188332763702937 
742	 0.191073502798052 
743	 0.194101110103564 
744	 0.197309340108106 
745	 0.20075901979254 
746	 0.204548877092316 
747	 0.208593331055576 
748	 0.212959953893571 
749	 0.21766960539341 
750	 0.222645936172948 
751	 0.227984063538686 
752	 0.233630932243789 
753	 0.239527228543534 
754	 0.245694639792503 
755	 0.252216566304813 
756	 0.258754776314813 
757	 0.26495636234262 
758	 0.270474973141218 
759	 0.276911771248417 
760	 0.286305505047893 
761	 0.297206446279676 
762	 0.305668173325184 
763	 0.312670802089843 
764	 0.320132530012859 
765	 0.327060109857702 
766	 0.33356919552442 
767	 0.339898291818751 
768	 0.346259620612848 
769	 0.352661272049319 
770	 0.35908863132735 
771	 0.365451470267571 
772	 0.371690681567409 
773	 0.377738352172828 
774	 0.38356326919579 
775	 0.389156257513771 
776	 0.39453551866484 
777	 0.399677496147676 
778	 0.404643185859918 
779	 0.40947363798274 
780	 0.414134413426195 
781	 0.418541409570994 
782	 0.422724643737964 
783	 0.426767717569074 
784	 0.430614667737475 
785	 0.434260000892452 
786	 0.437744433691787 
787	 0.441154207376278 
788	 0.44439520306857 
789	 0.447463420708643 
790	 0.450394141685856 
791	 0.453275602614702 
792	 0.455973445545896 
793	 0.458503998631664 
794	 0.460933286632525 
795	 0.463214851680641 
796	 0.465361843465374 
797	 0.467407355852733 
798	 0.46939125354374 
799	 0.471253436020688 
800	 0.473035693250764 
801	 0.474760805930035 
802	 0.476404069255418 
803	 0.47802569454838 
804	 0.47962554861301 
805	 0.481171967070388 
806	 0.482589226904603 
807	 0.483973808815637 
808	 0.485384617020447 
809	 0.486812419783752 
810	 0.488098572721913 
811	 0.489298908586733 
812	 0.490451302552732 
813	 0.491569557796315 
814	 0.492773515484253 
815	 0.494066730316787 
816	 0.495452324242531 
817	 0.497018696764985 
818	 0.498495391187346 
819	 0.499802362602476 
820	 0.500989213398705 
821	 0.502180155094808 
822	 0.503337020200241 
823	 0.504531612518301 
824	 0.50581536629491 
825	 0.506860922359529 
826	 0.50777457455112 
827	 0.508670636088424 
828	 0.50959441636973 
829	 0.510449436389506 
830	 0.511330664633523 
831	 0.512242414393383 
832	 0.512989879624053 
833	 0.513787405045079 
834	 0.514592283737318 
835	 0.515339651088734 
836	 0.516046449411073 
837	 0.516766141357551 
838	 0.517412617086967 
839	 0.517902528404366 
840	 0.51852891049802 
841	 0.519124581025518 
842	 0.519680053063953 
843	 0.520289496841908 
844	 0.520700395651267 
845	 0.521012568525096 
846	 0.521335119797788 
847	 0.521724344975349 
848	 0.521941696006364 
849	 0.522159505219248 
850	 0.522494724450331 
851	 0.522692291415011 
852	 0.522892026280318 
853	 0.523151926232672 
854	 0.523467172209554 
855	 0.523675581034769 
856	 0.523834055688524 
857	 0.523953753506676 
858	 0.524020937937698 
859	 0.524079230916481 
860	 0.524281761023331 
861	 0.524552291498517 
862	 0.524641771161742 
863	 0.524847581017052 
864	 0.524997888863034 
865	 0.525031869025143 
866	 0.525190706927317 
867	 0.525415166500965 
868	 0.525705233984541 
869	 0.526032605849684 
870	 0.526295990602281 
871	 0.526389969452304 
872	 0.526420843728448 
873	 0.526548849726822 
874	 0.526755784457665 
875	 0.526897231347313 
876	 0.5270149798967 
877	 0.527193918205806 
878	 0.52728980835742 
879	 0.527269439657696 
880	 0.52719637908673 
881	 0.527201959747357 
882	 0.526952004438718 
883	 0.526801970348616 
884	 0.526818155596915 
885	 0.526655387287479 
886	 0.526390568938487 
887	 0.526199358061192 
888	 0.526154489606399 
889	 0.526060739163854 
890	 0.52573910704382 
891	 0.525345211740067 
892	 0.525010686657681 
893	 0.524582544122439 
894	 0.524106329309867 
895	 0.523591030523809 
896	 0.523075658431966 
897	 0.52270841377674 
898	 0.522471464794664 
899	 0.522135101098064 
900	 0.521511033512288 
901	 0.521218860743611 
902	 0.521059704725899 
903	 0.520786758633044 
904	 0.520229867321228 
905	 0.519971673894449 
906	 0.519633608435686 
907	 0.519200402169866 
908	 0.519031437920634 
909	 0.518482997499299 
910	 0.51799632439426 
911	 0.517921910544149 
912	 0.518176237399226 
913	 0.518170542355052 
914	 0.518149219545273 
915	 0.518365751155492 
916	 0.518708112912639 
917	 0.51904827633996 
918	 0.519558872534877 
919	 0.520278123804609 
920	 0.520795145984907 
921	 0.52120182526915 
922	 0.52154222449247 
923	 0.52186063031209 
924	 0.522224790038721 
925	 0.522465625104377 
926	 0.522420080753255 
927	 0.521991814721711 
928	 0.52125973061283 
929	 0.52132018604527 
930	 0.521500892189593 
931	 0.520201302876546 
932	 0.520071802191541 
933	 0.519489602658771 
934	 0.51863332678753 
935	 0.519269333067552 
936	 0.520414484690809 
937	 0.52133852565607 
938	 0.522135263579353 
939	 0.523282582136638 
940	 0.523304489322316 
941	 0.522935788425159 
942	 0.52268569967713 
943	 0.522651995798213 
944	 0.523207927690834 
945	 0.523454351150907 
946	 0.523226070625067 
947	 0.52346614914891 
948	 0.523243235495368 
949	 0.523305218378839 
950	 0.523986771742777 
951	 0.524730865959291 
952	 0.525701645032486 
953	 0.526214380933217 
954	 0.526176061158087 
955	 0.52655047705734 
956	 0.527287277823814 
957	 0.52768898981474 
958	 0.527668057644948 
959	 0.528411396626981 
960	 0.529010539558879 
961	 0.529393093728511 
962	 0.529879281772665 
963	 0.531131261332006 
964	 0.531651705732508 
965	 0.531594987637072 
966	 0.531518861696716 
967	 0.531816641097349 
968	 0.53221903710903 
969	 0.532654662776821 
970	 0.533012144042739 
971	 0.532956851722764 
972	 0.532556956846061 
973	 0.532742654074243 
974	 0.53375858799463 
975	 0.53301096658061 
976	 0.532633834457179 
977	 0.532879378230058 
978	 0.533256522246487 
979	 0.53323761447693 
980	 0.533341599287985 
981	 0.533350526136442 
982	 0.532999190250447 
983	 0.532778677669805 
984	 0.532777715178858 
985	 0.532520251876218 
986	 0.531803349274485 
987	 0.532217018118308 
988	 0.532080153191867 
989	 0.531623585726488 
990	 0.531614918242024 
991	 0.53169665610676 
992	 0.531662050874949 
993	 0.531558682688773 
994	 0.531512131873856 
995	 0.531452976598472 
996	 0.531206769202516 
997	 0.530700310204359 
998	 0.529956723778667 
999	 0.529047763991236 
1000	 0.528505892088609 
1001	 0.534115084337759 
1002	 0.534119460801161 
1003	 0.533887387897727 
1004	 0.533617088561958 
1005	 0.533174021755179 
1006	 0.532814392499663 
1007	 0.53233717067396 
1008	 0.532098952024922 
1009	 0.531885980736019 
1010	 0.531516031271356 
1011	 0.531339701293289 
1012	 0.531084564263741 
1013	 0.530825671872355 
1014	 0.530713990132167 
1015	 0.530394864203663 
1016	 0.530081871310346 
1017	 0.529920190904237 
1018	 0.529847566616361 
1019	 0.529711706637355 
1020	 0.529541191843384 
1021	 0.529608377447426 
1022	 0.529578375809225 
1023	 0.529465909759148 
1024	 0.529627928024473 
1025	 0.529720477608209 
1026	 0.529756239311774 
1027	 0.5298714840221 
1028	 0.530103118989043 
1029	 0.530366731951606 
1030	 0.530432238413035 
1031	 0.530477042795036 
1032	 0.530499079732406 
1033	 0.530500549346646 
1034	 0.530396469658083 
1035	 0.530330004712005 
1036	 0.530415548197614 
1037	 0.530521438481882 
1038	 0.530692497505105 
1039	 0.530955329377707 
1040	 0.53103339447878 
1041	 0.531140167510517 
1042	 0.531143923069621 
1043	 0.530898712087454 
1044	 0.530774655447947 
1045	 0.530726903709902 
1046	 0.53055732660328 
1047	 0.530307598515952 
1048	 0.530238075381454 
1049	 0.529892990421126 
1050	 0.529482521506696 
1051	 0.529259677857983 
1052	 0.52891631953136 
1053	 0.528665126129494 
1054	 0.52846814779203 
1055	 0.528077507785364 
1056	 0.527457263131768 
1057	 0.526788545610366 
1058	 0.525969542171314 
1059	 0.525162444840226 
1060	 0.524211941184142 
1061	 0.523422414293146 
1062	 0.522620916584779 
1063	 0.521814131467146 
1064	 0.520936776398082 
1065	 0.519931973603268 
1066	 0.518957185541748 
1067	 0.517612145890346 
1068	 0.516106597108892 
1069	 0.514694451793778 
1070	 0.513198467531913 
1071	 0.511556011487868 
1072	 0.510051921585415 
1073	 0.508613951577546 
1074	 0.507089288299648 
1075	 0.505633888483834 
1076	 0.504015831141776 
1077	 0.502323352719878 
1078	 0.500658848912436 
1079	 0.498897045811603 
1080	 0.497384456577612 
1081	 0.496061365912382 
1082	 0.494852208419381 
1083	 0.493682918411814 
1084	 0.492563918528781 
1085	 0.491579598657362 
1086	 0.490540504132931 
1087	 0.489843555090349 
1088	 0.489361062538854 
1089	 0.48905503987072 
1090	 0.488967716921022 
1091	 0.489054431461681 
1092	 0.48903678419426 
1093	 0.489150472075547 
1094	 0.489302231329515 
1095	 0.48952852916725 
1096	 0.489949213100268 
1097	 0.4906063622557 
1098	 0.491185441797188 
1099	 0.491861029941642 
1100	 0.492592304117541 
1101	 0.493372724894746 
1102	 0.49424863213691 
1103	 0.495402033300361 
1104	 0.496339520252157 
1105	 0.497275457711498 
1106	 0.498149057897092 
1107	 0.498978749591588 
1108	 0.499722521559221 
1109	 0.500383079483407 
1110	 0.501119907650222 
1111	 0.501856218556714 
1112	 0.502483570658354 
1113	 0.50329072960969 
1114	 0.504216874009345 
1115	 0.505263590799078 
1116	 0.506700106654385 
1117	 0.507738173246573 
1118	 0.508629028353592 
1119	 0.509606226480377 
1120	 0.510160053108735 
1121	 0.510979833139938 
1122	 0.512021700778047 
1123	 0.513080042911346 
1124	 0.514152001229064 
1125	 0.515169118217969 
1126	 0.516274520119375 
1127	 0.517523856365624 
1128	 0.518388450914622 
1129	 0.518849285364776 
1130	 0.519583537737022 
1131	 0.520097371599082 
1132	 0.520747300661868 
1133	 0.521700357180483 
1134	 0.522317272458508 
1135	 0.522725203238632 
1136	 0.523140833540449 
1137	 0.523513048805732 
1138	 0.5237824245921 
1139	 0.523894422167289 
1140	 0.524108836102577 
1141	 0.524397215575809 
1142	 0.52477216010532 
1143	 0.524886787297815 
