Wavelength	09/27/123 at 12:24:59
350	 6.89159183309733E-02 
351	 0.068758948418684 
352	 6.94971761820147E-02 
353	 7.05986074225372E-02 
354	 7.09617947636347E-02 
355	 7.17934624326162E-02 
356	 7.26543295399116E-02 
357	 7.32940193827019E-02 
358	 0.074210701949794 
359	 7.51726647761351E-02 
360	 7.60483713304196E-02 
361	 7.67828660543011E-02 
362	 7.77060469777309E-02 
363	 7.87307683375426E-02 
364	 7.97934605100272E-02 
365	 8.09841104312119E-02 
366	 8.21997660820885E-02 
367	 8.35433314706676E-02 
368	 8.51824344743767E-02 
369	 8.68992806346657E-02 
370	 8.85345117696675E-02 
371	 9.01648624142661E-02 
372	 9.23700519553072E-02 
373	 9.46911990841299E-02 
374	 9.71197615389002E-02 
375	 0.099841394503743 
376	 0.102607982497811 
377	 0.105666889690606 
378	 0.109113759377646 
379	 0.11253295622029 
380	 0.116242327741682 
381	 0.120433249888277 
382	 0.125214073939463 
383	 0.130393405697419 
384	 0.135756075967395 
385	 0.141162908793111 
386	 0.146742087369862 
387	 0.152680128227403 
388	 0.158913284583084 
389	 0.165335768090852 
390	 0.172237621294014 
391	 0.179543162401604 
392	 0.187097562469496 
393	 0.194817177929161 
394	 0.202430854754372 
395	 0.209742334460738 
396	 0.21658629960553 
397	 0.222991098693154 
398	 0.228923771485561 
399	 0.234436347751387 
400	 0.239758402078032 
401	 0.244875993280028 
402	 0.249894468555112 
403	 0.254926227190082 
404	 0.259738546024908 
405	 0.264398043153657 
406	 0.268866745152323 
407	 0.272927655511798 
408	 0.276553768766975 
409	 0.279738516414441 
410	 0.282531738224599 
411	 0.285169213647506 
412	 0.287526772647636 
413	 0.289570908080138 
414	 0.291440743260839 
415	 0.293323319151428 
416	 0.295111960501029 
417	 0.296646108903037 
418	 0.298328949708896 
419	 0.300089797591135 
420	 0.301874253832655 
421	 0.303746299487013 
422	 0.30560907120464 
423	 0.307486012050571 
424	 0.30942724966465 
425	 0.311408361061754 
426	 0.313354999565981 
427	 0.315255137971083 
428	 0.317201921792412 
429	 0.319141918886411 
430	 0.321127399484498 
431	 0.323236293838523 
432	 0.325442687355264 
433	 0.327819648421287 
434	 0.330353444495439 
435	 0.33292830301941 
436	 0.335678385602445 
437	 0.338469953782564 
438	 0.341131776085944 
439	 0.343800838868732 
440	 0.346409843661745 
441	 0.348873702622544 
442	 0.351089482574526 
443	 0.353234203392526 
444	 0.355237314440458 
445	 0.357016870206823 
446	 0.358786705610022 
447	 0.360448753804763 
448	 0.361924493115937 
449	 0.363210262060446 
450	 0.364487894878126 
451	 0.365707434315697 
452	 0.366771329596953 
453	 0.367759560415227 
454	 0.368708037109986 
455	 0.369598596335664 
456	 0.370361333602818 
457	 0.371133559854567 
458	 0.37187842788641 
459	 0.372537747097314 
460	 0.37313993239256 
461	 0.373766175652202 
462	 0.374402370233812 
463	 0.374899690212863 
464	 0.375436964364323 
465	 0.375986200173531 
466	 0.376476726199446 
467	 0.376912342335503 
468	 0.377287377782631 
469	 0.377614956158767 
470	 0.377926449434292 
471	 0.378134464869401 
472	 0.378315176401908 
473	 0.378523979535227 
474	 0.378647087348505 
475	 0.378729681258554 
476	 0.37878693921718 
477	 0.37881161886326 
478	 0.378861027684775 
479	 0.378917289738847 
480	 0.378936252886966 
481	 0.378807854072178 
482	 0.378651877688107 
483	 0.378552274180899 
484	 0.378548011886582 
485	 0.378409393556076 
486	 0.378234280381702 
487	 0.378096023313202 
488	 0.377856548024559 
489	 0.377617447328621 
490	 0.377382916910765 
491	 0.377103636429663 
492	 0.376756350377338 
493	 0.376370351316385 
494	 0.375973709143709 
495	 0.375509544274991 
496	 0.375016553017094 
497	 0.374459665261842 
498	 0.373791562971216 
499	 0.373159115243566 
500	 0.37248068487676 
501	 0.371700363397899 
502	 0.370825340106349 
503	 0.369898185955229 
504	 0.368912238652093 
505	 0.367848922615362 
506	 0.366780144767369 
507	 0.365606454025197 
508	 0.364287903905758 
509	 0.362920271227299 
510	 0.361435606354159 
511	 0.359914489282145 
512	 0.358418982091574 
513	 0.356741608706119 
514	 0.35499343681719 
515	 0.353186827480309 
516	 0.351201811168895 
517	 0.349141534853384 
518	 0.347084535045247 
519	 0.34507116763585 
520	 0.342987832671907 
521	 0.340832977073125 
522	 0.338613621630049 
523	 0.336384959651788 
524	 0.334108720994022 
525	 0.331751142440263 
526	 0.329308943016037 
527	 0.326859676293208 
528	 0.324439645150153 
529	 0.322056823725075 
530	 0.319629167302109 
531	 0.317115708838613 
532	 0.31453401674683 
533	 0.311950571659043 
534	 0.3094215471998 
535	 0.306909083114281 
536	 0.304330499184975 
537	 0.30159263138252 
538	 0.298920190923145 
539	 0.296231979091223 
540	 0.293463434715021 
541	 0.290667441566214 
542	 0.287865345416969 
543	 0.285073696017506 
544	 0.282261672580899 
545	 0.279411166848106 
546	 0.276521531922018 
547	 0.273621922159 
548	 0.270779584647242 
549	 0.267948135911843 
550	 0.265148321936308 
551	 0.262381665895978 
552	 0.259560834733081 
553	 0.25675821805297 
554	 0.254015252635136 
555	 0.25130959605709 
556	 0.248626582244469 
557	 0.245960131031106 
558	 0.243337262758957 
559	 0.240784535571658 
560	 0.238290883746164 
561	 0.235893523188087 
562	 0.233646415286534 
563	 0.231416770078959 
564	 0.229231479463741 
565	 0.22713492382313 
566	 0.225094951873464 
567	 0.223194190558799 
568	 0.221416091646103 
569	 0.219671398919312 
570	 0.218007929401864 
571	 0.216428654445304 
572	 0.214928760716077 
573	 0.213493237799694 
574	 0.212111322415847 
575	 0.210791642422375 
576	 0.209571846530817 
577	 0.208438481068108 
578	 0.207368162173855 
579	 0.206358286065123 
580	 0.205425265422122 
581	 0.204482504206234 
582	 0.203550761530984 
583	 0.202672968136272 
584	 0.201798255636937 
585	 0.200921422682637 
586	 0.200080369727614 
587	 0.199345047781794 
588	 0.198554358038864 
589	 0.197716600781549 
590	 0.19690185936922 
591	 0.19605843794339 
592	 0.195195022812919 
593	 0.194345445938818 
594	 0.193595007446547 
595	 0.192845815067718 
596	 0.192080762982603 
597	 0.191295955973508 
598	 0.190485935087473 
599	 0.189685761598733 
600	 0.188887072511737 
601	 0.188072030178096 
602	 0.187267441363532 
603	 0.186490916801901 
604	 0.185740835223925 
605	 0.184990304565077 
606	 0.184276113653284 
607	 0.18360602206648 
608	 0.182973662538671 
609	 0.182407908898052 
610	 0.181852609915307 
611	 0.181319270215394 
612	 0.180872527491544 
613	 0.180427023376925 
614	 0.180009982592498 
615	 0.179650020125745 
616	 0.179326845294082 
617	 0.179008458653799 
618	 0.178673508798385 
619	 0.178311331121511 
620	 0.178058522441367 
621	 0.177826769412485 
622	 0.177554578757306 
623	 0.177302340389928 
624	 0.177059949369522 
625	 0.176834122404786 
626	 0.176632431353205 
627	 0.176430103886054 
628	 0.17623307082909 
629	 0.17602079687517 
630	 0.175736408032518 
631	 0.175544134997437 
632	 0.175357850843027 
633	 0.175091716666307 
634	 0.174873307286573 
635	 0.174737056504341 
636	 0.174635262739701 
637	 0.174480170735166 
638	 0.174404292509345 
639	 0.174348753490051 
640	 0.17428710450388 
641	 0.17432090438111 
642	 0.174373212601631 
643	 0.17442869949085 
644	 0.174503309618787 
645	 0.174641596208786 
646	 0.174751278861166 
647	 0.174846313226458 
648	 0.175075820997144 
649	 0.175378921356806 
650	 0.175661487796411 
651	 0.175881427343562 
652	 0.176182106857359 
653	 0.176456398849394 
654	 0.176722841277307 
655	 0.177095306637364 
656	 0.17766915333485 
657	 0.178136614083584 
658	 0.178383857004648 
659	 0.178731758069648 
660	 0.179077960140071 
661	 0.17940035914507 
662	 0.179691723636131 
663	 0.179885256249046 
664	 0.180052580581024 
665	 0.180197902905806 
666	 0.180251253077104 
667	 0.18034434757241 
668	 0.180369691816507 
669	 0.180264126750067 
670	 0.180228364402807 
671	 0.180117775479602 
672	 0.179918301121328 
673	 0.179689440272953 
674	 0.17952014686239 
675	 0.179278194400165 
676	 0.178923556646904 
677	 0.178584853940364 
678	 0.178223224940748 
679	 0.177862344222893 
680	 0.177518104678881 
681	 0.17711099397337 
682	 0.176670687546186 
683	 0.176229752646553 
684	 0.175819488707014 
685	 0.175395097757458 
686	 0.175061635816039 
687	 0.174813069129028 
688	 0.174325539016626 
689	 0.173658054426856 
690	 0.172902800480716 
691	 0.172163677428855 
692	 0.171362254425911 
693	 0.170619362674782 
694	 0.169926257233641 
695	 0.16915359134522 
696	 0.168426063908808 
697	 0.167693646474477 
698	 0.166915026192804 
699	 0.166184993453048 
700	 0.1654568034455 
701	 0.164739044431091 
702	 0.164049763041018 
703	 0.163301748095906 
704	 0.162630297147147 
705	 0.162042821582869 
706	 0.161412094306783 
707	 0.160946233680812 
708	 0.16056538411434 
709	 0.1601891006755 
710	 0.159916052632022 
711	 0.159687532385919 
712	 0.159528427735149 
713	 0.159504666097639 
714	 0.159566831434174 
715	 0.159643294534913 
716	 0.159756203474493 
717	 0.160062928896265 
718	 0.160470955617513 
719	 0.160958226677209 
720	 0.161487454352609 
721	 0.162030152035808 
722	 0.162509803152873 
723	 0.16303580206338 
724	 0.163734880981395 
725	 0.164545091887464 
726	 0.16541556734308 
727	 0.166356745669584 
728	 0.167406971629023 
729	 0.168460276871752 
730	 0.169572142134079 
731	 0.170811519839339 
732	 0.172187966635649 
733	 0.173574364318346 
734	 0.175013100005052 
735	 0.176620102237267 
736	 0.178403166610722 
737	 0.180295778415368 
738	 0.182278788883281 
739	 0.184392290389983 
740	 0.186747573182792 
741	 0.189350051020721 
742	 0.192164441266695 
743	 0.195141602084672 
744	 0.198369617594751 
745	 0.201855131220219 
746	 0.2055492564062 
747	 0.209616312023218 
748	 0.213989868103201 
749	 0.21864771521334 
750	 0.223632464373152 
751	 0.228949946356102 
752	 0.234559169505725 
753	 0.240419700964864 
754	 0.246526463695278 
755	 0.252936885108289 
756	 0.259360838611803 
757	 0.265505669785894 
758	 0.270906583064018 
759	 0.277162216503867 
760	 0.286318327057103 
761	 0.297035315067993 
762	 0.305368752506473 
763	 0.312241566380677 
764	 0.319523710872473 
765	 0.326230426956393 
766	 0.332537022653663 
767	 0.338671338715973 
768	 0.344827578307114 
769	 0.351047581460863 
770	 0.357264932229644 
771	 0.363396645064131 
772	 0.369435591477374 
773	 0.37528313960406 
774	 0.380904267611956 
775	 0.386322385336405 
776	 0.391653757494561 
777	 0.39664206859593 
778	 0.401387847302519 
779	 0.406041990541186 
780	 0.410588407044525 
781	 0.414860058610005 
782	 0.418853198472155 
783	 0.422670181971316 
784	 0.426387606921522 
785	 0.429931957245879 
786	 0.433292298291258 
787	 0.436558042457483 
788	 0.43967469424334 
789	 0.442654662788289 
790	 0.445510080205962 
791	 0.448208415115324 
792	 0.450811072965665 
793	 0.453272564123754 
794	 0.455532856832114 
795	 0.457704684121187 
796	 0.459804874219659 
797	 0.461816296995028 
798	 0.463693648814344 
799	 0.465343330676615 
800	 0.466999277337984 
801	 0.468742511481736 
802	 0.470324750685928 
803	 0.471880608168459 
804	 0.473424379361833 
805	 0.474926987215731 
806	 0.476320207684648 
807	 0.477678053665803 
808	 0.479055646342194 
809	 0.480454848259883 
810	 0.481753142403925 
811	 0.482932352461433 
812	 0.484033044364428 
813	 0.485157208486486 
814	 0.486338975194377 
815	 0.487606534675108 
816	 0.488978710270051 
817	 0.490501026868917 
818	 0.491872172745463 
819	 0.493084249176787 
820	 0.494234141236258 
821	 0.495319326502268 
822	 0.496364287373244 
823	 0.497456171872519 
824	 0.498648725128041 
825	 0.499694565540433 
826	 0.50058724555855 
827	 0.501400861983662 
828	 0.502229291337749 
829	 0.503108317194841 
830	 0.503955918903062 
831	 0.504735047636691 
832	 0.505521247417096 
833	 0.506301566712908 
834	 0.507055876062947 
835	 0.507779653662958 
836	 0.508469463283562 
837	 0.509091974214206 
838	 0.509654497483697 
839	 0.510193649202307 
840	 0.51081569302615 
841	 0.511387517054991 
842	 0.511865453956761 
843	 0.512284747392575 
844	 0.512687721039208 
845	 0.513100524286016 
846	 0.513517218646196 
847	 0.513900822588227 
848	 0.51404778414457 
849	 0.51422278489393 
850	 0.514597225508346 
851	 0.514854019596293 
852	 0.515072097661951 
853	 0.515245754407386 
854	 0.515385901249747 
855	 0.515597961104863 
856	 0.515828649979386 
857	 0.516000795375033 
858	 0.516058108938442 
859	 0.516166226100944 
860	 0.516312306672267 
861	 0.516470733030926 
862	 0.516622905640898 
863	 0.516767028637521 
864	 0.516852138818957 
865	 0.516904494869398 
866	 0.517105863774298 
867	 0.517508145408599 
868	 0.517842189380737 
869	 0.517974580076147 
870	 0.518244466799899 
871	 0.518375148441304 
872	 0.518430557584693 
873	 0.518557671743222 
874	 0.518700056565374 
875	 0.518837117804582 
876	 0.518991544719777 
877	 0.519167188085594 
878	 0.51926871676474 
879	 0.519162532185874 
880	 0.518956717781771 
881	 0.518956713310419 
882	 0.51907202427048 
883	 0.519011091167794 
884	 0.518792837313764 
885	 0.518796606529846 
886	 0.518616379924708 
887	 0.518387000208843 
888	 0.518244532336017 
889	 0.518097304296556 
890	 0.517755399293619 
891	 0.517441984742743 
892	 0.517288419176806 
893	 0.516925814092219 
894	 0.516303730652087 
895	 0.515726439708501 
896	 0.515503841433176 
897	 0.515244974937721 
898	 0.514868106191668 
899	 0.514450426677961 
900	 0.514136539048613 
901	 0.513957742745278 
902	 0.513772647448203 
903	 0.513415057320993 
904	 0.512781649906995 
905	 0.512419338252486 
906	 0.512207517383396 
907	 0.511947463788438 
908	 0.511448178575166 
909	 0.511029138731174 
910	 0.510724995707661 
911	 0.510563183913781 
912	 0.510597788316373 
913	 0.510538942881806 
914	 0.510639102226106 
915	 0.511016024469757 
916	 0.511314143460996 
917	 0.511762982597538 
918	 0.512264027532433 
919	 0.512729166953093 
920	 0.513318098327294 
921	 0.513812795149317 
922	 0.514142559396771 
923	 0.51434779145513 
924	 0.514640661697385 
925	 0.51506896398474 
926	 0.5151899632052 
927	 0.514583463639593 
928	 0.514181537261926 
929	 0.514072305875959 
930	 0.513918487155528 
931	 0.513226505674491 
932	 0.513119159531102 
933	 0.512834056917918 
934	 0.512451881164869 
935	 0.512797374471504 
936	 0.513248831934653 
937	 0.514381002022321 
938	 0.515504900034536 
939	 0.515325085638276 
940	 0.515967345943695 
941	 0.516252520930929 
942	 0.516093500763552 
943	 0.516664524380259 
944	 0.517299343339086 
945	 0.517019417814514 
946	 0.516068654896375 
947	 0.516173480604694 
948	 0.516467992007491 
949	 0.517102120280761 
950	 0.518118782092415 
951	 0.519213106293437 
952	 0.518561809224829 
953	 0.517786217082334 
954	 0.518222416151276 
955	 0.519446568288913 
956	 0.519445153770283 
957	 0.519420181187134 
958	 0.520251062337094 
959	 0.520819659596067 
960	 0.520885797668573 
961	 0.520831993730102 
962	 0.521187295731488 
963	 0.522370721336612 
964	 0.52358875266208 
965	 0.52421391271911 
966	 0.524031984665886 
967	 0.523472191663449 
968	 0.523872803722311 
969	 0.524628237840325 
970	 0.524865883858026 
971	 0.524711759549067 
972	 0.524446091862593 
973	 0.524501173645058 
974	 0.524861716150139 
975	 0.524108486631572 
976	 0.524151558373571 
977	 0.524762652707717 
978	 0.525084690183613 
979	 0.524971545812452 
980	 0.524982131395507 
981	 0.524676585258261 
982	 0.523829836748802 
983	 0.524211986099916 
984	 0.524318511039781 
985	 0.524181984131773 
986	 0.524226165249109 
987	 0.523960491844142 
988	 0.523982400991156 
989	 0.524229091542864 
990	 0.524235012872035 
991	 0.523200064341373 
992	 0.522608891179083 
993	 0.52261244819129 
994	 0.522725505595587 
995	 0.522601331079041 
996	 0.522077171436328 
997	 0.521676894077435 
998	 0.521762080580888 
999	 0.520952945080465 
1000	 0.520173421180415 
1001	 0.525476257208995 
1002	 0.52526523546404 
1003	 0.525073000228755 
1004	 0.524794143958109 
1005	 0.524403131047146 
1006	 0.524103511652246 
1007	 0.523758177630625 
1008	 0.523545954057852 
1009	 0.52325088513607 
1010	 0.523070792869505 
1011	 0.522871863928362 
1012	 0.522473649333113 
1013	 0.522517495665093 
1014	 0.522575614101875 
1015	 0.52253557563043 
1016	 0.522510278339062 
1017	 0.522394019735227 
1018	 0.522094400190237 
1019	 0.521883265557684 
1020	 0.521701965506728 
1021	 0.521674883709627 
1022	 0.52175121299281 
1023	 0.521820028594406 
1024	 0.521938865910907 
1025	 0.522075935662036 
1026	 0.522266925997236 
1027	 0.522386304205362 
1028	 0.52235651510485 
1029	 0.522338226384497 
1030	 0.522233927312749 
1031	 0.522204544009743 
1032	 0.522092455259039 
1033	 0.522353678961989 
1034	 0.522643012219719 
1035	 0.522830481968217 
1036	 0.523039998795091 
1037	 0.522899665949364 
1038	 0.522722857624024 
1039	 0.52280842300561 
1040	 0.522701870018065 
1041	 0.52265676590807 
1042	 0.52265636881299 
1043	 0.522454547324356 
1044	 0.522280242557353 
1045	 0.522093424010541 
1046	 0.521976766198128 
1047	 0.521851782504912 
1048	 0.52163891265584 
1049	 0.521482099640266 
1050	 0.521261082939275 
1051	 0.520872236465609 
1052	 0.520448580416568 
1053	 0.519961186924479 
1054	 0.519482627877569 
1055	 0.519066225806043 
1056	 0.518637091997041 
1057	 0.518061614246074 
1058	 0.517352004299342 
1059	 0.516655583946394 
1060	 0.515889012057303 
1061	 0.515111548832588 
1062	 0.514179714109229 
1063	 0.513426742485177 
1064	 0.512508344776363 
1065	 0.51136483706251 
1066	 0.510370801621652 
1067	 0.509251306648122 
1068	 0.507991328990007 
1069	 0.506825310953753 
1070	 0.505509360908661 
1071	 0.504121626807206 
1072	 0.502671076300042 
1073	 0.501096534047852 
1074	 0.49948349074435 
1075	 0.497787560561984 
1076	 0.496129896345425 
1077	 0.494479046550565 
1078	 0.49303098425848 
1079	 0.491679197748785 
1080	 0.490319855755438 
1081	 0.488975042407627 
1082	 0.487705730898095 
1083	 0.486600388900277 
1084	 0.485475116055434 
1085	 0.484655638267526 
1086	 0.484135156679763 
1087	 0.483570679268667 
1088	 0.483114394465213 
1089	 0.482776661977901 
1090	 0.482497652196429 
1091	 0.482198360215974 
1092	 0.48213707313079 
1093	 0.482288203991282 
1094	 0.482577813804762 
1095	 0.483111695246106 
1096	 0.483617787267387 
1097	 0.48430839920314 
1098	 0.484912066426862 
1099	 0.485478378469295 
1100	 0.486153458729758 
1101	 0.486928082597896 
1102	 0.487726039835667 
1103	 0.488686344078544 
1104	 0.489572653287233 
1105	 0.490524421077237 
1106	 0.491387944112787 
1107	 0.492338774529478 
1108	 0.493039414242688 
1109	 0.493569120893844 
1110	 0.494395473203362 
1111	 0.495252956101896 
1112	 0.496154920710729 
1113	 0.497098924551441 
1114	 0.498400746808152 
1115	 0.499346196905835 
1116	 0.500106942295574 
1117	 0.50085688514678 
1118	 0.50109900125321 
1119	 0.501876836742946 
1120	 0.502879322510117 
1121	 0.503981127467019 
1122	 0.505861283039083 
1123	 0.507238287831136 
1124	 0.508361953654711 
1125	 0.509075959719269 
1126	 0.510033333322021 
1127	 0.510538570987067 
1128	 0.511363053508486 
1129	 0.512380595722747 
1130	 0.513199821368068 
1131	 0.513869256323433 
1132	 0.514495202158795 
1133	 0.515141621145136 
1134	 0.51557784765603 
1135	 0.515740884685386 
1136	 0.516049051124642 
1137	 0.51640078230408 
1138	 0.516624822137465 
1139	 0.516993454068826 
1140	 0.516995595678614 
1141	 0.517266428760488 
1142	 0.517539604241034 
