Wavelength	09/27/123 at 12:25:01
350	 6.92656380156906E-02 
351	 6.92954288812334E-02 
352	 6.98331642993323E-02 
353	 7.06536169541174E-02 
354	 7.12091362856847E-02 
355	 7.21273175866118E-02 
356	 7.28905724877476E-02 
357	 7.33109503705394E-02 
358	 7.40674297041242E-02 
359	 7.51051204985807E-02 
360	 7.61391200987519E-02 
361	 7.68592765750997E-02 
362	 7.80305490351918E-02 
363	 7.93167894290445E-02 
364	 8.04428333021326E-02 
365	 8.14833876435867E-02 
366	 8.25549818594588E-02 
367	 8.37117735663526E-02 
368	 8.50021286308009E-02 
369	 8.67157927623796E-02 
370	 8.86024151301467E-02 
371	 9.05475721094726E-02 
372	 9.29066410173203E-02 
373	 9.51806794272184E-02 
374	 9.74058403239041E-02 
375	 0.099899428598033 
376	 0.102712504534197 
377	 0.10595241706096 
378	 0.109522649081963 
379	 0.1128224405889 
380	 0.116461838457643 
381	 0.120694030696233 
382	 0.125566730444358 
383	 0.13079012333368 
384	 0.136245523675172 
385	 0.141776910820689 
386	 0.147156883403832 
387	 0.15307924510954 
388	 0.159518759556866 
389	 0.166156766159445 
390	 0.172899151257799 
391	 0.180160390699354 
392	 0.187959856976584 
393	 0.195640434641351 
394	 0.203231224357252 
395	 0.210617159795291 
396	 0.21759897239812 
397	 0.223899583907932 
398	 0.229742881020531 
399	 0.235314056152871 
400	 0.240710103669311 
401	 0.245850794899794 
402	 0.250867748506845 
403	 0.255927945592304 
404	 0.260747743525732 
405	 0.2653610301498 
406	 0.269772543683719 
407	 0.273957394054195 
408	 0.277625456846755 
409	 0.280811966244051 
410	 0.283684547724557 
411	 0.28623591946576 
412	 0.288520056831849 
413	 0.29060665619955 
414	 0.292577733290768 
415	 0.294396918374128 
416	 0.296103827801892 
417	 0.297760249097242 
418	 0.299441114182451 
419	 0.301138807702715 
420	 0.302888606625895 
421	 0.304842698499025 
422	 0.306736463734748 
423	 0.308605765091776 
424	 0.310564370500976 
425	 0.312510727311819 
426	 0.314423646838146 
427	 0.316327021387639 
428	 0.318312482249272 
429	 0.320264483161258 
430	 0.322239711212197 
431	 0.324340718908168 
432	 0.326526537730397 
433	 0.328887791570932 
434	 0.331423077683989 
435	 0.33402401562052 
436	 0.336747721141885 
437	 0.339508523267496 
438	 0.342203910158716 
439	 0.344931031514573 
440	 0.347541359283212 
441	 0.349954609371379 
442	 0.352184576305469 
443	 0.354359920300058 
444	 0.356390789257759 
445	 0.358180484915967 
446	 0.35991660219179 
447	 0.361545684290919 
448	 0.363016716314416 
449	 0.364329689344876 
450	 0.365599149949265 
451	 0.366786567683489 
452	 0.367830684427088 
453	 0.368839419025654 
454	 0.369817742719473 
455	 0.370720687443931 
456	 0.371460203779236 
457	 0.372202663247631 
458	 0.372941819527048 
459	 0.37363122563681 
460	 0.374239690626444 
461	 0.374825922113017 
462	 0.375415085080321 
463	 0.375958336838362 
464	 0.376484962819486 
465	 0.377002235529587 
466	 0.377500778589938 
467	 0.377957800104639 
468	 0.378322665994842 
469	 0.378598446546632 
470	 0.378843557872302 
471	 0.379099040128881 
472	 0.379331300582433 
473	 0.379498914267163 
474	 0.37961278276414 
475	 0.379741810980241 
476	 0.379856095886741 
477	 0.379854297554426 
478	 0.379881948327695 
479	 0.37990034655179 
480	 0.37987034763452 
481	 0.37983359960261 
482	 0.379766953552094 
483	 0.379668443844388 
484	 0.379547497094686 
485	 0.379374342099426 
486	 0.379221120372935 
487	 0.379100506531356 
488	 0.378840634391216 
489	 0.378576952020403 
490	 0.378330474283868 
491	 0.378055718381796 
492	 0.377695461954169 
493	 0.377291711648173 
494	 0.376882142775741 
495	 0.376395329019695 
496	 0.375898709893878 
497	 0.375359894043603 
498	 0.374714168383787 
499	 0.374034110577272 
500	 0.373333566985215 
501	 0.372594273935523 
502	 0.371721177672234 
503	 0.370782003741456 
504	 0.369777797061246 
505	 0.368693897430267 
506	 0.367597850821718 
507	 0.366424261018652 
508	 0.365135055862682 
509	 0.363777628088186 
510	 0.362304419533843 
511	 0.360754473441268 
512	 0.359167496753038 
513	 0.357517451788723 
514	 0.355796749677978 
515	 0.353970625547779 
516	 0.351985052153896 
517	 0.349885490169829 
518	 0.347803902751085 
519	 0.345819886162413 
520	 0.343675410882179 
521	 0.341494366782183 
522	 0.339315421685172 
523	 0.337133901519566 
524	 0.334849125412029 
525	 0.33243741111559 
526	 0.329934557695182 
527	 0.327481813760153 
528	 0.325084317396443 
529	 0.322712885536702 
530	 0.320252253439818 
531	 0.317741808915943 
532	 0.31518585902625 
533	 0.312620991904182 
534	 0.310079578461074 
535	 0.307509988709117 
536	 0.304893741968579 
537	 0.30222761427484 
538	 0.299577515587964 
539	 0.29686316748673 
540	 0.294055882041338 
541	 0.291269352623601 
542	 0.288475259363003 
543	 0.285684152076412 
544	 0.282872216712737 
545	 0.279984781584686 
546	 0.277077027396529 
547	 0.274192491357084 
548	 0.271333353307667 
549	 0.26849408873351 
550	 0.26568139858031 
551	 0.262880536962758 
552	 0.260074848330848 
553	 0.257285235677577 
554	 0.254532786174913 
555	 0.251820955864323 
556	 0.24911737020757 
557	 0.246428537964403 
558	 0.24379846221699 
559	 0.241250557414222 
560	 0.23878215421863 
561	 0.236403285764047 
562	 0.23411368823643 
563	 0.231862828569658 
564	 0.229679343365997 
565	 0.227590642388325 
566	 0.225549722804904 
567	 0.223615227129467 
568	 0.221803561907681 
569	 0.22008792329699 
570	 0.218435438292449 
571	 0.216861848225778 
572	 0.21536724233135 
573	 0.213882079982582 
574	 0.212505952972843 
575	 0.211219628938617 
576	 0.209979990162861 
577	 0.208832069298703 
578	 0.207749374805886 
579	 0.206723470949845 
580	 0.205769256341065 
581	 0.204804268867918 
582	 0.203874834149601 
583	 0.203036627337819 
584	 0.20215355919097 
585	 0.201288179542407 
586	 0.200477474894739 
587	 0.199708733691238 
588	 0.198895544649241 
589	 0.198058452829242 
590	 0.197252854784169 
591	 0.196370681288035 
592	 0.195522597810938 
593	 0.194719472774751 
594	 0.193944812905994 
595	 0.193190648366681 
596	 0.192429465810998 
597	 0.191644985384241 
598	 0.190854054791707 
599	 0.190059479606679 
600	 0.189257900406352 
601	 0.18844982429197 
602	 0.187643939813185 
603	 0.186831736771088 
604	 0.186027793063869 
605	 0.185283295222882 
606	 0.184583354024486 
607	 0.183939483676749 
608	 0.183350813864863 
609	 0.182787634279127 
610	 0.18221167759253 
611	 0.181658629411383 
612	 0.181216609150622 
613	 0.18071981292647 
614	 0.1802625458465 
615	 0.179923005264383 
616	 0.179579308652122 
617	 0.179245735112513 
618	 0.178930019583939 
619	 0.178622239840323 
620	 0.1782822164074 
621	 0.178002303810398 
622	 0.177806248788255 
623	 0.177571882576862 
624	 0.177322687285551 
625	 0.177088882187853 
626	 0.176896649012338 
627	 0.176694429493757 
628	 0.176495266335837 
629	 0.176290271010531 
630	 0.176035910567483 
631	 0.175833798656453 
632	 0.17561686175001 
633	 0.175344605056738 
634	 0.175217844464106 
635	 0.17507763967631 
636	 0.174906917230681 
637	 0.174786426649692 
638	 0.174678094951829 
639	 0.174616465417287 
640	 0.174618205298257 
641	 0.174645074079944 
642	 0.174687658317008 
643	 0.174740804762874 
644	 0.174812321104189 
645	 0.17494658303835 
646	 0.175073324658605 
647	 0.175194080484451 
648	 0.17540418538619 
649	 0.175668876113362 
650	 0.175944252677973 
651	 0.176202689185193 
652	 0.176468897651319 
653	 0.176754006304894 
654	 0.177059623939744 
655	 0.177398590800247 
656	 0.177913596833141 
657	 0.178378343685328 
658	 0.178674670155992 
659	 0.178982499514456 
660	 0.179280333754485 
661	 0.179588097475897 
662	 0.179912177509392 
663	 0.180110911534923 
664	 0.180317860528644 
665	 0.180517895448046 
666	 0.18054008474622 
667	 0.180596888800648 
668	 0.180637335680615 
669	 0.180594847939902 
670	 0.180518597688664 
671	 0.180375577826704 
672	 0.180175230860014 
673	 0.179951554629559 
674	 0.179769358505034 
675	 0.179510753627555 
676	 0.17914325704388 
677	 0.178785912669939 
678	 0.178441157753184 
679	 0.178104933243609 
680	 0.17776314703457 
681	 0.177385305801242 
682	 0.176919286540391 
683	 0.17643524642182 
684	 0.176078584682696 
685	 0.175677771546169 
686	 0.175326105536499 
687	 0.175025805325087 
688	 0.174474706721535 
689	 0.173826584474891 
690	 0.173126938785196 
691	 0.172405842324361 
692	 0.171616017342709 
693	 0.170880448575719 
694	 0.170179843779293 
695	 0.169368323754447 
696	 0.168653530364323 
697	 0.16792755328961 
698	 0.167117005823271 
699	 0.166415194313784 
700	 0.165700947387396 
701	 0.164965758630466 
702	 0.164242979113577 
703	 0.163481184921533 
704	 0.16281606395849 
705	 0.162252235010134 
706	 0.161659270565673 
707	 0.16119526982619 
708	 0.160807596870501 
709	 0.160426222404793 
710	 0.160046025919095 
711	 0.159756740174011 
712	 0.15962129817699 
713	 0.159668045083553 
714	 0.159737774301987 
715	 0.159821109150929 
716	 0.159953708636128 
717	 0.160205145650909 
718	 0.160604715737212 
719	 0.161116196217903 
720	 0.161642280022802 
721	 0.162103458733715 
722	 0.162595286894276 
723	 0.163200658523792 
724	 0.163916709374669 
725	 0.164698211803851 
726	 0.165537046381635 
727	 0.166471105982494 
728	 0.167539794642222 
729	 0.168602812379052 
730	 0.169727317979526 
731	 0.170980737664424 
732	 0.172280979377525 
733	 0.173664737804785 
734	 0.175141807083852 
735	 0.176711008430527 
736	 0.178499076457253 
737	 0.180375389321472 
738	 0.182336381904628 
739	 0.184569240616662 
740	 0.186983495343135 
741	 0.189556890434036 
742	 0.192301014790587 
743	 0.195283583164164 
744	 0.198532615256882 
745	 0.202026202994003 
746	 0.205706924920358 
747	 0.209745683031647 
748	 0.214097011706145 
749	 0.218755676481361 
750	 0.223773046199644 
751	 0.22909307162028 
752	 0.234672606134985 
753	 0.240504868524165 
754	 0.246682154307717 
755	 0.253096630649802 
756	 0.259464539011933 
757	 0.265581258840178 
758	 0.271005090365965 
759	 0.277295857657192 
760	 0.286482861280292 
761	 0.297258870007495 
762	 0.30545745989734 
763	 0.312196140044622 
764	 0.319471602693333 
765	 0.32624170606006 
766	 0.332603031412637 
767	 0.338789474278287 
768	 0.345007908969957 
769	 0.351234757450332 
770	 0.357463589019783 
771	 0.363596222799031 
772	 0.369557065901669 
773	 0.375358221094174 
774	 0.38099024717558 
775	 0.386431554192918 
776	 0.391651036922819 
777	 0.39657286393402 
778	 0.401331111318348 
779	 0.406039347070366 
780	 0.410568643693504 
781	 0.414844425551977 
782	 0.41885389708516 
783	 0.422639025349973 
784	 0.426376335414216 
785	 0.42996087373967 
786	 0.433337496795573 
787	 0.436556920038808 
788	 0.43960438201431 
789	 0.442521765750219 
790	 0.445353342389185 
791	 0.448123978894557 
792	 0.450738559826639 
793	 0.453194636731734 
794	 0.455524672346755 
795	 0.457701893464819 
796	 0.45977099510978 
797	 0.461736878677543 
798	 0.463574291313582 
799	 0.465355927878648 
800	 0.467083219366729 
801	 0.468738220408713 
802	 0.470302330095683 
803	 0.471827620631651 
804	 0.473326699153306 
805	 0.47479644418906 
806	 0.47623131946425 
807	 0.477557002084354 
808	 0.478857313224925 
809	 0.480234107937633 
810	 0.481449920051334 
811	 0.482603547238358 
812	 0.483758451207299 
813	 0.484922427733299 
814	 0.486171862211809 
815	 0.487439939907996 
816	 0.488724000383996 
817	 0.490239024734514 
818	 0.491630959510913 
819	 0.492848299410176 
820	 0.493973447603842 
821	 0.495083214291926 
822	 0.496136425671474 
823	 0.497230691249113 
824	 0.498458398425088 
825	 0.499522101635835 
826	 0.500418101359823 
827	 0.501205902837532 
828	 0.501955482491124 
829	 0.502838613150489 
830	 0.503733137916694 
831	 0.504528856360408 
832	 0.505231549044053 
833	 0.506033537254565 
834	 0.50681018215601 
835	 0.50745907551333 
836	 0.508150619191214 
837	 0.50877811352866 
838	 0.509374979270541 
839	 0.509999215216699 
840	 0.510531763176241 
841	 0.511024937243865 
842	 0.511540728176823 
843	 0.512105065043579 
844	 0.512521002368745 
845	 0.512887000673638 
846	 0.513248258808066 
847	 0.513535323569735 
848	 0.513815155065266 
849	 0.514094589602119 
850	 0.51436095479038 
851	 0.514580236977232 
852	 0.514787322788053 
853	 0.51498070327073 
854	 0.515150611873868 
855	 0.515252059737101 
856	 0.515471692505409 
857	 0.51568707215946 
858	 0.515684321315162 
859	 0.515819333823136 
860	 0.51601521366131 
861	 0.516181158762766 
862	 0.516268042531651 
863	 0.5164565892674 
864	 0.516609388361774 
865	 0.516704021311797 
866	 0.516989446571267 
867	 0.517233885512672 
868	 0.517404333228281 
869	 0.517563860445664 
870	 0.517877503091237 
871	 0.518040876250467 
872	 0.518128366629949 
873	 0.518273829787463 
874	 0.518244622320712 
875	 0.518274692686725 
876	 0.518441064048273 
877	 0.518682369760373 
878	 0.518852526006627 
879	 0.518837857894148 
880	 0.51870421006141 
881	 0.518670599599886 
882	 0.518616871852176 
883	 0.51852805800874 
884	 0.518413294647316 
885	 0.518297505814924 
886	 0.518078106756164 
887	 0.517914605087107 
888	 0.517830175814749 
889	 0.517480922758338 
890	 0.517214454160086 
891	 0.51702624053582 
892	 0.51682452792537 
893	 0.51663342283672 
894	 0.516074194637264 
895	 0.515440583705723 
896	 0.515132052830454 
897	 0.514690950867111 
898	 0.51430521639414 
899	 0.513970790256825 
900	 0.513612197797061 
901	 0.513444217197327 
902	 0.513330279567937 
903	 0.513032765967543 
904	 0.512361098754884 
905	 0.512001757577186 
906	 0.511859291886079 
907	 0.511686136434661 
908	 0.511181903576929 
909	 0.510614943842295 
910	 0.510331270786334 
911	 0.51036039353171 
912	 0.510286852338405 
913	 0.510254427015924 
914	 0.510424023923828 
915	 0.510761276449388 
916	 0.510847659662625 
917	 0.51119259268533 
918	 0.511859765479842 
919	 0.512630423396205 
920	 0.512971138556995 
921	 0.513171680942901 
922	 0.51338250649549 
923	 0.513651168938952 
924	 0.513793355030674 
925	 0.51406717702374 
926	 0.514315593524424 
927	 0.514232212380515 
928	 0.513791799656235 
929	 0.513703366693629 
930	 0.513541491985553 
931	 0.512369186240911 
932	 0.512488685136973 
933	 0.512377863345769 
934	 0.512072007677816 
935	 0.51292367109598 
936	 0.513249104485661 
937	 0.513571733309489 
938	 0.514043533397172 
939	 0.514458366770181 
940	 0.515839630253356 
941	 0.516258106685455 
942	 0.515478298647369 
943	 0.515158036212728 
944	 0.515825035019626 
945	 0.516266423975927 
946	 0.516162408010897 
947	 0.516612750001782 
948	 0.516263487194938 
949	 0.516029310508557 
950	 0.516513111139942 
951	 0.517366533130504 
952	 0.518362554168944 
953	 0.51828275997461 
954	 0.51752359484244 
955	 0.519031232411213 
956	 0.519300933535145 
957	 0.519217166690157 
958	 0.51981937944167 
959	 0.520547248766921 
960	 0.521025466775036 
961	 0.521198793615654 
962	 0.521343872470926 
963	 0.5221162851182 
964	 0.523049042373118 
965	 0.523595574631362 
966	 0.523477422273128 
967	 0.522951036632149 
968	 0.52326976610635 
969	 0.523890636974872 
970	 0.524053116198066 
971	 0.523986785913556 
972	 0.523821103814553 
973	 0.524033954567979 
974	 0.524662437875242 
975	 0.52420797612239 
976	 0.524149175395048 
977	 0.523992652226302 
978	 0.523214768839258 
979	 0.523527353400823 
980	 0.52379688421678 
981	 0.523720626540433 
982	 0.52340767208546 
983	 0.523143377145475 
984	 0.523390673210863 
985	 0.523625750023793 
986	 0.523264574969699 
987	 0.522956387942089 
988	 0.522836271646979 
989	 0.522683540470044 
990	 0.522350960347663 
991	 0.522637975524694 
992	 0.522538332807374 
993	 0.52228675791673 
994	 0.522246812085131 
995	 0.52099271068023 
996	 0.520969174395064 
997	 0.521678982626278 
998	 0.521500631523849 
999	 0.519772351872961 
1000	 0.519372019211777 
1001	 0.524269717480163 
1002	 0.523976127172225 
1003	 0.523951259049521 
1004	 0.523777122601255 
1005	 0.523414811939255 
1006	 0.523185801856779 
1007	 0.523003413280727 
1008	 0.522850328485039 
1009	 0.52271085300352 
1010	 0.52267139804416 
1011	 0.522648678999088 
1012	 0.522307134776123 
1013	 0.521697601027351 
1014	 0.521244297570581 
1015	 0.520838608164941 
1016	 0.520543398651587 
1017	 0.520431549491174 
1018	 0.520646446247276 
1019	 0.520711529074695 
1020	 0.520479562055941 
1021	 0.520359281111756 
1022	 0.520259839495576 
1023	 0.520062701684286 
1024	 0.520219240203561 
1025	 0.520496603738942 
1026	 0.520594164928256 
1027	 0.52087997825233 
1028	 0.520963115345445 
1029	 0.520862328537117 
1030	 0.520880267249594 
1031	 0.520818057124509 
1032	 0.520562658226517 
1033	 0.520615962958773 
1034	 0.520899658679848 
1035	 0.521030428877162 
1036	 0.5213190276614 
1037	 0.521485324069067 
1038	 0.521598405897257 
1039	 0.521686421232543 
1040	 0.521551465949493 
1041	 0.52159143539567 
1042	 0.521467915344464 
1043	 0.521313124647574 
1044	 0.52129400968613 
1045	 0.52150034707783 
1046	 0.521426765752119 
1047	 0.521312284754204 
1048	 0.521171856348424 
1049	 0.520767123659872 
1050	 0.520412715479878 
1051	 0.520086419753128 
1052	 0.519651984728609 
1053	 0.519144406089461 
1054	 0.518525407404596 
1055	 0.517902372214544 
1056	 0.517241843619432 
1057	 0.516532610996388 
1058	 0.515710563294857 
1059	 0.515104066252231 
1060	 0.514635734783527 
1061	 0.513959353132122 
1062	 0.513323787738981 
1063	 0.512700972657614 
1064	 0.511675069239919 
1065	 0.510500972338774 
1066	 0.509525205373179 
1067	 0.508384752138004 
1068	 0.50712482577052 
1069	 0.506060906679382 
1070	 0.504799536361361 
1071	 0.503427031405674 
1072	 0.501959779961928 
1073	 0.500310017161237 
1074	 0.498762172724105 
1075	 0.497161775202036 
1076	 0.495683343341204 
1077	 0.494176606282211 
1078	 0.492671542381457 
1079	 0.491125940165265 
1080	 0.489488004405121 
1081	 0.488091568186302 
1082	 0.486907784418499 
1083	 0.485763873744766 
1084	 0.484644613871392 
1085	 0.483824833903892 
1086	 0.483207168558621 
1087	 0.482599933876761 
1088	 0.482109273357026 
1089	 0.48182092182694 
1090	 0.481644049025029 
1091	 0.481438376136088 
1092	 0.481496239911484 
1093	 0.481776567959143 
1094	 0.481958235354127 
1095	 0.482247948028597 
1096	 0.482661717850379 
1097	 0.483207379269937 
1098	 0.483814509914423 
1099	 0.484551915398473 
1100	 0.485312017623564 
1101	 0.486301575323278 
1102	 0.487104043606337 
1103	 0.487879664814308 
1104	 0.488691214097036 
1105	 0.489362262017751 
1106	 0.490185698413473 
1107	 0.491268218975874 
1108	 0.492253482827228 
1109	 0.493247308249527 
1110	 0.494125919151006 
1111	 0.494912588032027 
1112	 0.495423890135829 
1113	 0.49617479308915 
1114	 0.496947073924814 
1115	 0.497802481399233 
1116	 0.498855147874845 
1117	 0.499795948010328 
1118	 0.500721580157796 
1119	 0.501644759737052 
1120	 0.502366004292863 
1121	 0.503321720476665 
1122	 0.504272180190304 
1123	 0.505426277839774 
1124	 0.506723951157877 
1125	 0.508345816906963 
1126	 0.50960171091311 
1127	 0.510944775907864 
1128	 0.511663021865497 
1129	 0.511516489197754 
1130	 0.512057769471256 
1131	 0.512443117605176 
1132	 0.512940934299174 
1133	 0.513779354836674 
1134	 0.514464129238907 
1135	 0.515078307096024 
1136	 0.515542817131067 
1137	 0.516177595806026 
1138	 0.516496683079433 
1139	 0.516580073283396 
1140	 0.516456613773892 
1141	 0.516378555497151 
1142	 0.51607143865699 
1143	 0.516162692996595 
