Wavelength	09/27/123 at 12:25:24
350	 0.064783688526197 
351	 6.50040060151006E-02 
352	 6.58903817072554E-02 
353	 6.67929275325945E-02 
354	 6.68411677104701E-02 
355	 0.067672246794227 
356	 6.85824626336903E-02 
357	 6.91496373109934E-02 
358	 7.00559366216164E-02 
359	 7.09752455527247E-02 
360	 7.16466306880586E-02 
361	 7.19482383290933E-02 
362	 7.28610530604711E-02 
363	 7.41427053372782E-02 
364	 7.54373160177443E-02 
365	 7.64500652586788E-02 
366	 7.73990471424788E-02 
367	 7.84561451220224E-02 
368	 7.97798041800434E-02 
369	 8.14623915561112E-02 
370	 8.32120758430679E-02 
371	 8.49188270014241E-02 
372	 8.69665389180519E-02 
373	 8.90937378353143E-02 
374	 9.12624993738306E-02 
375	 9.35500990273007E-02 
376	 9.59769013828652E-02 
377	 9.88599491729737E-02 
378	 0.102199633597359 
379	 0.105162236933419 
380	 0.108603302235264 
381	 0.112579783150353 
382	 0.116792346422198 
383	 0.121465423598974 
384	 0.126405371651228 
385	 0.131427927436036 
386	 0.136588787663851 
387	 0.142020345859243 
388	 0.147730692705736 
389	 0.153704888039365 
390	 0.159943705948489 
391	 0.16669212897287 
392	 0.173833239720333 
393	 0.180645303843213 
394	 0.187487603973735 
395	 0.194112741725855 
396	 0.200114514113996 
397	 0.205906149084684 
398	 0.211340579200678 
399	 0.216382567469952 
400	 0.221310433577554 
401	 0.225968879840081 
402	 0.230463665895794 
403	 0.234989596761026 
404	 0.239598319458271 
405	 0.244046614356294 
406	 0.248101979637508 
407	 0.251601839260027 
408	 0.254927260035617 
409	 0.258017824401793 
410	 0.260680676587674 
411	 0.263059248329949 
412	 0.265151366200746 
413	 0.267004069773432 
414	 0.268748918095523 
415	 0.270415662233735 
416	 0.272035501054651 
417	 0.273613940072494 
418	 0.275066961550551 
419	 0.276604537807271 
420	 0.278325994351617 
421	 0.280158290601513 
422	 0.281815005230167 
423	 0.283429160588186 
424	 0.285241806851266 
425	 0.287072686241626 
426	 0.288922567041791 
427	 0.290761147216249 
428	 0.29248605684475 
429	 0.294232966616562 
430	 0.296050469285483 
431	 0.297961733217981 
432	 0.299990157088137 
433	 0.302170959525349 
434	 0.304480720654467 
435	 0.306834067325202 
436	 0.309389893229949 
437	 0.312001125401264 
438	 0.314466588348914 
439	 0.316873082727566 
440	 0.319254268627326 
441	 0.321558899491415 
442	 0.323623336175467 
443	 0.325598840905076 
444	 0.327450019481566 
445	 0.329125731649498 
446	 0.33074420409805 
447	 0.332256894966763 
448	 0.333617416661154 
449	 0.33482234920378 
450	 0.335985495799801 
451	 0.337093029332576 
452	 0.338093676759344 
453	 0.338997660992333 
454	 0.339858076594644 
455	 0.340687313565544 
456	 0.341456518147747 
457	 0.342129367500443 
458	 0.342725053404687 
459	 0.343288419543413 
460	 0.343863018976457 
461	 0.344410898446249 
462	 0.344940793390645 
463	 0.345479475285586 
464	 0.345972723633865 
465	 0.346419897827362 
466	 0.346832912464367 
467	 0.347234017236001 
468	 0.347587565302345 
469	 0.347872652349271 
470	 0.348089952224874 
471	 0.348304075020897 
472	 0.348520927973732 
473	 0.348704952530732 
474	 0.34874443735992 
475	 0.348810189382978 
476	 0.348901899601261 
477	 0.34888683561093 
478	 0.348854300942184 
479	 0.348819576056034 
480	 0.348783655530522 
481	 0.348723541187246 
482	 0.348639213079375 
483	 0.348531936447446 
484	 0.348401926608358 
485	 0.348234254147278 
486	 0.348055731531848 
487	 0.347858695023522 
488	 0.347525759377716 
489	 0.347287298226376 
490	 0.347095568927497 
491	 0.346761611753015 
492	 0.346335137574995 
493	 0.345889033445928 
494	 0.3454755236276 
495	 0.34504365720683 
496	 0.344528727641735 
497	 0.343954258146094 
498	 0.343383137144143 
499	 0.342786319053158 
500	 0.342109257233305 
501	 0.341317887231439 
502	 0.340380216463269 
503	 0.339455662398414 
504	 0.338529402938809 
505	 0.337523628513351 
506	 0.336471668460171 
507	 0.335349592521072 
508	 0.334124210633493 
509	 0.332776556855775 
510	 0.331394904586884 
511	 0.329980679255704 
512	 0.328493651518261 
513	 0.326932647047364 
514	 0.325304767981102 
515	 0.323577906713775 
516	 0.321683728472549 
517	 0.319759821462811 
518	 0.317822371140504 
519	 0.315856970778037 
520	 0.313828825794798 
521	 0.311803351231033 
522	 0.309767460667557 
523	 0.307677575425136 
524	 0.305546992258565 
525	 0.303329330756197 
526	 0.301013562250503 
527	 0.298728301211074 
528	 0.296478282390797 
529	 0.294254582505817 
530	 0.291978371211602 
531	 0.289669641450908 
532	 0.287307527849122 
533	 0.284906736899028 
534	 0.282487148037001 
535	 0.280091164803789 
536	 0.277694537831941 
537	 0.275232424031065 
538	 0.272769403421035 
539	 0.270272142316864 
540	 0.267711953542057 
541	 0.265075103841311 
542	 0.262513252493038 
543	 0.259986015690194 
544	 0.257355614568407 
545	 0.254739764009261 
546	 0.252108167057074 
547	 0.249452995057508 
548	 0.246814039098036 
549	 0.244232348091851 
550	 0.24166900585108 
551	 0.239059642854531 
552	 0.236493754763871 
553	 0.233962989767685 
554	 0.231455925572742 
555	 0.228950737052887 
556	 0.226471949998224 
557	 0.224022364506984 
558	 0.221628012972474 
559	 0.219328013226319 
560	 0.217070085766933 
561	 0.214875032288845 
562	 0.21280834110506 
563	 0.210774960675699 
564	 0.208802893068941 
565	 0.206930497065726 
566	 0.205136158820595 
567	 0.203425460546024 
568	 0.201786148498831 
569	 0.200191108309265 
570	 0.198713869670377 
571	 0.197327530523495 
572	 0.196003894237857 
573	 0.194748520121088 
574	 0.193497597139991 
575	 0.192271746099049 
576	 0.191151725945705 
577	 0.190163184607719 
578	 0.189184300424104 
579	 0.188182625206075 
580	 0.187272398944424 
581	 0.186453776118358 
582	 0.185677456792896 
583	 0.184884111754068 
584	 0.184066727843639 
585	 0.183262079423421 
586	 0.182513148754245 
587	 0.181855102428082 
588	 0.181172553607784 
589	 0.180444779672222 
590	 0.179705434843278 
591	 0.17892653969507 
592	 0.178152214175651 
593	 0.177416304246989 
594	 0.176770566413939 
595	 0.176055485050762 
596	 0.175299664845736 
597	 0.174551277232599 
598	 0.173835350188554 
599	 0.173113552992139 
600	 0.172366055073592 
601	 0.171596876305463 
602	 0.170869217772182 
603	 0.170165130482417 
604	 0.169478022567589 
605	 0.168832494952157 
606	 0.168206332617304 
607	 0.167634391200867 
608	 0.167137597963449 
609	 0.16663706935428 
610	 0.166166202147787 
611	 0.165729648865279 
612	 0.165289504930093 
613	 0.164848338690671 
614	 0.164453849468624 
615	 0.164135536462274 
616	 0.163865043147584 
617	 0.163559825744647 
618	 0.163229563560106 
619	 0.162931066995783 
620	 0.162698608134689 
621	 0.162493948116421 
622	 0.162282201785116 
623	 0.162064757565791 
624	 0.16188897293076 
625	 0.161710580080404 
626	 0.161475492737974 
627	 0.161276354129025 
628	 0.161102706303465 
629	 0.160940433734121 
630	 0.160772762856625 
631	 0.160583320017821 
632	 0.160344769179136 
633	 0.160073290717204 
634	 0.159931890880364 
635	 0.159829686241022 
636	 0.159728288892983 
637	 0.159631913384656 
638	 0.159562996656536 
639	 0.159531923232037 
640	 0.159533117751891 
641	 0.159530511553939 
642	 0.159558922840659 
643	 0.159605900118615 
644	 0.159660494610457 
645	 0.159819277363003 
646	 0.159965445037454 
647	 0.160083765860258 
648	 0.160296367796498 
649	 0.160503211817602 
650	 0.16071737801866 
651	 0.160965878190421 
652	 0.161231814311701 
653	 0.161458028234145 
654	 0.161687323424991 
655	 0.162037854989316 
656	 0.162569482984896 
657	 0.162961268381971 
658	 0.163116668416284 
659	 0.163401448347889 
660	 0.163647174550821 
661	 0.163892752915318 
662	 0.16419776203441 
663	 0.164371530215199 
664	 0.164542767862866 
665	 0.164731716378584 
666	 0.16483285787692 
667	 0.164896316880899 
668	 0.164902611558949 
669	 0.164842891509719 
670	 0.164770688027374 
671	 0.164682218880435 
672	 0.164529200215926 
673	 0.164265868537525 
674	 0.164083869319412 
675	 0.163861712302065 
676	 0.163548011060124 
677	 0.16324182217442 
678	 0.162914460986108 
679	 0.162602198372308 
680	 0.162323067690094 
681	 0.161959556004283 
682	 0.161548840789719 
683	 0.161121796731507 
684	 0.160708365492729 
685	 0.16036791876933 
686	 0.160086201211952 
687	 0.159795273171519 
688	 0.159349959274711 
689	 0.158781013533973 
690	 0.158161461137924 
691	 0.15756685405131 
692	 0.156861393003564 
693	 0.156231666010996 
694	 0.155658513472735 
695	 0.154931126969313 
696	 0.154282502805853 
697	 0.153652630653138 
698	 0.152979045710709 
699	 0.152358625511005 
700	 0.151731835233513 
701	 0.151092968702651 
702	 0.150453844556341 
703	 0.149760360386986 
704	 0.149165007057076 
705	 0.148679966515018 
706	 0.148167573271549 
707	 0.147742263591764 
708	 0.147388811093815 
709	 0.147077591496231 
710	 0.146801343400795 
711	 0.146614212583172 
712	 0.146532278364021 
713	 0.146546387807927 
714	 0.14656555717927 
715	 0.146637083831315 
716	 0.146804616211068 
717	 0.147077224434776 
718	 0.147465776203792 
719	 0.147904073334867 
720	 0.148315762175557 
721	 0.148749592648916 
722	 0.149179030523412 
723	 0.149710468494233 
724	 0.150427922287137 
725	 0.151091609045527 
726	 0.15182795896745 
727	 0.152704576845891 
728	 0.153602820211497 
729	 0.154542410042732 
730	 0.155539350667048 
731	 0.156603050477175 
732	 0.157745424572362 
733	 0.158917968122677 
734	 0.160162779908393 
735	 0.161558658534804 
736	 0.163133584316117 
737	 0.164820093351575 
738	 0.166591671161421 
739	 0.168477677237633 
740	 0.170587411098345 
741	 0.172884465356539 
742	 0.175324273613587 
743	 0.177977011346641 
744	 0.180814523838483 
745	 0.183878419973922 
746	 0.187210347279 
747	 0.190787469110091 
748	 0.194618757990705 
749	 0.198731110201334 
750	 0.20315099153535 
751	 0.207893922638292 
752	 0.212930914903816 
753	 0.218221496709378 
754	 0.223730018944708 
755	 0.229508988116834 
756	 0.235290628832113 
757	 0.240821291048656 
758	 0.245833553675917 
759	 0.251764547129148 
760	 0.260396784292152 
761	 0.270190162206091 
762	 0.277755454574019 
763	 0.284081274998583 
764	 0.290875092266474 
765	 0.297105099483321 
766	 0.302873388006141 
767	 0.308534121762654 
768	 0.314377577929012 
769	 0.32022442117607 
770	 0.32607850027643 
771	 0.331867455667374 
772	 0.337537934595273 
773	 0.343044396572301 
774	 0.348395566664177 
775	 0.353589470530304 
776	 0.358595920582995 
777	 0.36330664988392 
778	 0.367804651880631 
779	 0.372189365656934 
780	 0.376450388400429 
781	 0.380543830640343 
782	 0.384440264188727 
783	 0.388124904961222 
784	 0.391670110148145 
785	 0.395076791599972 
786	 0.398336801032654 
787	 0.401439877003433 
788	 0.404480869929754 
789	 0.407390198789999 
790	 0.410104717872588 
791	 0.412682534991461 
792	 0.415199661077643 
793	 0.417612018981911 
794	 0.419849031080573 
795	 0.422021727714529 
796	 0.424032604005241 
797	 0.425895046601287 
798	 0.427718791561043 
799	 0.429465042938774 
800	 0.431146893495036 
801	 0.432774033491008 
802	 0.434351058000891 
803	 0.435869314911651 
804	 0.4372936986558 
805	 0.438625908926542 
806	 0.440000610883449 
807	 0.441320177994891 
808	 0.442640484395439 
809	 0.444034232330212 
810	 0.445259283915449 
811	 0.4464287523224 
812	 0.447633345287433 
813	 0.448908039635786 
814	 0.450165708652479 
815	 0.451446618490886 
816	 0.452787926509922 
817	 0.454203178656339 
818	 0.455425148042404 
819	 0.456527016422093 
820	 0.457662743206003 
821	 0.458796210342104 
822	 0.459862155401607 
823	 0.460900012674871 
824	 0.461967776670864 
825	 0.462926361665676 
826	 0.463841629955681 
827	 0.46472388494585 
828	 0.465495284338251 
829	 0.46629607526607 
830	 0.467076984276812 
831	 0.467793883249352 
832	 0.468465036029126 
833	 0.469261129797981 
834	 0.470002332057221 
835	 0.470579269843617 
836	 0.471327457889365 
837	 0.471976425367273 
838	 0.472485870581905 
839	 0.472944983778774 
840	 0.473560953436486 
841	 0.47412232105941 
842	 0.474560325766628 
843	 0.474940245340279 
844	 0.475342810756836 
845	 0.475720589483856 
846	 0.47605435515476 
847	 0.476394425356566 
848	 0.476640596609756 
849	 0.476901536188017 
850	 0.47723150749401 
851	 0.477425947413578 
852	 0.47770830491331 
853	 0.478007105524963 
854	 0.478188162288044 
855	 0.47825273192486 
856	 0.478330912183089 
857	 0.478515032627352 
858	 0.478803090739024 
859	 0.47890499620386 
860	 0.479019731888211 
861	 0.4791884358746 
862	 0.479294387055395 
863	 0.479449955062911 
864	 0.479604390309501 
865	 0.479764687849661 
866	 0.480085666501883 
867	 0.480285651611561 
868	 0.480380569858179 
869	 0.480486733537606 
870	 0.480760315740961 
871	 0.481008486686006 
872	 0.481195176430544 
873	 0.481346981199578 
874	 0.481434987144657 
875	 0.481545745896859 
876	 0.481691566916124 
877	 0.481835053238279 
878	 0.482043297829969 
879	 0.482029468498408 
880	 0.481864753953456 
881	 0.481902138767307 
882	 0.481842792636387 
883	 0.481756408737058 
884	 0.481668138627928 
885	 0.481517708866968 
886	 0.481449754975524 
887	 0.481401551527338 
888	 0.481291522008389 
889	 0.481028751330597 
890	 0.480778385638506 
891	 0.480576708799825 
892	 0.480384213199347 
893	 0.480112263293211 
894	 0.479825065603222 
895	 0.479596677663937 
896	 0.479438406548536 
897	 0.479057558326655 
898	 0.478701520366348 
899	 0.478441324499882 
900	 0.47819794007226 
901	 0.477798678308304 
902	 0.477456936854965 
903	 0.477167856775747 
904	 0.476776227761066 
905	 0.476530464471134 
906	 0.476239119036717 
907	 0.475908932689655 
908	 0.475732379819881 
909	 0.47534604937246 
910	 0.474977026495159 
911	 0.474870920929829 
912	 0.475103747436765 
913	 0.475043117615817 
914	 0.475084498345212 
915	 0.475421477561507 
916	 0.475474909072679 
917	 0.475944903872256 
918	 0.476466914282357 
919	 0.476713621808081 
920	 0.477094398467879 
921	 0.477668009504219 
922	 0.478137689438943 
923	 0.478292748518525 
924	 0.478610726271669 
925	 0.479005494707387 
926	 0.479244709210189 
927	 0.479136586982253 
928	 0.479100748531653 
929	 0.479109101820787 
930	 0.478955766533573 
931	 0.478472917253941 
932	 0.478871816379452 
933	 0.479029466814772 
934	 0.47888733174607 
935	 0.479414221600177 
936	 0.480137938801801 
937	 0.480601469421525 
938	 0.480738400813387 
939	 0.480848761446577 
940	 0.481746992336247 
941	 0.482211084038865 
942	 0.482149144654905 
943	 0.482674416307431 
944	 0.483222910305237 
945	 0.483513829613493 
946	 0.483468541884343 
947	 0.483245323323355 
948	 0.482657985106936 
949	 0.482880078828351 
950	 0.483958693457628 
951	 0.484259068576733 
952	 0.484319380812414 
953	 0.48393407875803 
954	 0.483536405140755 
955	 0.48457448774292 
956	 0.48546508655819 
957	 0.485740342491097 
958	 0.485579126284741 
959	 0.485720905281538 
960	 0.486448069009197 
961	 0.487056792593235 
962	 0.487252287288147 
963	 0.488016646743248 
964	 0.488526694055758 
965	 0.488484030720912 
966	 0.488094578768117 
967	 0.488347439934173 
968	 0.488427550499564 
969	 0.488699783789885 
970	 0.489360005354759 
971	 0.489275917867913 
972	 0.489148126078398 
973	 0.489187149969957 
974	 0.489273281104795 
975	 0.488831327962885 
976	 0.488905450608622 
977	 0.489201197710818 
978	 0.489111734714911 
979	 0.488672453553797 
980	 0.488607564025657 
981	 0.488699071654604 
982	 0.488663565670656 
983	 0.489427410290203 
984	 0.48890591391292 
985	 0.488095176431163 
986	 0.488486691796806 
987	 0.488810151933803 
988	 0.48902283794608 
989	 0.488794608087117 
990	 0.488035298949694 
991	 0.487793083172773 
992	 0.487620323820818 
993	 0.487565223042453 
994	 0.487578224782785 
995	 0.486352061124843 
996	 0.486303439516406 
997	 0.486997424913713 
998	 0.486951462238948 
999	 0.485859242143455 
1000	 0.485309669112954 
1001	 0.486330065133818 
1002	 0.485722130281513 
1003	 0.485406502928649 
1004	 0.485135568631845 
1005	 0.484870328893968 
1006	 0.484567957715182 
1007	 0.48439314624028 
1008	 0.484187862853481 
1009	 0.483811090479321 
1010	 0.483696927576557 
1011	 0.483700639516737 
1012	 0.483494836898219 
1013	 0.483206086897308 
1014	 0.48301769636645 
1015	 0.482775450091057 
1016	 0.482819314905576 
1017	 0.482770977522891 
1018	 0.482856415272681 
1019	 0.482662333232597 
1020	 0.482575810702519 
1021	 0.482289554330253 
1022	 0.482097687938129 
1023	 0.482341232074587 
1024	 0.482468959335895 
1025	 0.482710514581169 
1026	 0.483044926211892 
1027	 0.483284552177814 
1028	 0.483521197119781 
1029	 0.483538010442316 
1030	 0.483490238523857 
1031	 0.483521097295085 
1032	 0.483487551426611 
1033	 0.483506519497164 
1034	 0.483734395334252 
1035	 0.483872841242636 
1036	 0.483704757295221 
1037	 0.483530826357599 
1038	 0.483555308459295 
1039	 0.483588323831762 
1040	 0.483721574422627 
1041	 0.483984468675223 
1042	 0.483879299677583 
1043	 0.483608740919495 
1044	 0.483477606999153 
1045	 0.483416800281107 
1046	 0.483195612670243 
1047	 0.482942153705446 
1048	 0.482790704876459 
1049	 0.482606974008843 
1050	 0.482429093704113 
1051	 0.482246088438857 
1052	 0.482031868933312 
1053	 0.481719143955317 
1054	 0.481298710115147 
1055	 0.480833484345586 
1056	 0.480197105237637 
1057	 0.479526995528077 
1058	 0.478606253839182 
1059	 0.477922726344952 
1060	 0.477295799518115 
1061	 0.476731927226733 
1062	 0.476188020389672 
1063	 0.475484723165794 
1064	 0.474675535757156 
1065	 0.473753214365956 
1066	 0.47278718387292 
1067	 0.471625969710549 
1068	 0.470314688430367 
1069	 0.46906378308849 
1070	 0.467717481538692 
1071	 0.466364810335676 
1072	 0.464921579269197 
1073	 0.463258683087844 
1074	 0.461743119777777 
1075	 0.460273138062393 
1076	 0.458777737346216 
1077	 0.45738823798723 
1078	 0.45601269732167 
1079	 0.454427709241433 
1080	 0.453040635748449 
1081	 0.451743761388422 
1082	 0.450537489723279 
1083	 0.449487902869902 
1084	 0.448605351554988 
1085	 0.44775863318039 
1086	 0.446920435709757 
1087	 0.446319247796839 
1088	 0.445866119310318 
1089	 0.445563741423201 
1090	 0.44540289578625 
1091	 0.44536200660768 
1092	 0.445522445477054 
1093	 0.445716964914107 
1094	 0.446011986538986 
1095	 0.446459037230251 
1096	 0.446892301536386 
1097	 0.447288963530417 
1098	 0.447921742711269 
1099	 0.448713759794974 
1100	 0.449546162620728 
1101	 0.450690700475418 
1102	 0.451643467299638 
1103	 0.452611515116162 
1104	 0.453526879591718 
1105	 0.454376995136556 
1106	 0.455222822554721 
1107	 0.456128990924941 
1108	 0.456943092385262 
1109	 0.457636701073442 
1110	 0.458508135866632 
1111	 0.459363619307924 
1112	 0.460176501451495 
1113	 0.461103032312442 
1114	 0.46212369697757 
1115	 0.463290041183028 
1116	 0.464744118361193 
1117	 0.465998643697718 
1118	 0.467373028340921 
1119	 0.468632592884209 
1120	 0.469463045683726 
1121	 0.470559940316032 
1122	 0.471615205502393 
1123	 0.472899833192941 
1124	 0.474308090718999 
1125	 0.475994236916168 
1126	 0.477215835101996 
1127	 0.478443261607482 
1128	 0.479132571021937 
1129	 0.478781604975974 
1130	 0.479386161198925 
1131	 0.480052168618195 
1132	 0.480770321361676 
1133	 0.481938582597718 
1134	 0.482821307258914 
1135	 0.483792059029282 
1136	 0.484250648485528 
1137	 0.484570376716203 
1138	 0.484676444345759 
1139	 0.484215609752979 
1140	 0.483687608484223 
1141	 0.483842293518276 
