Wavelength	09/27/123 at 12:25:22
350	 6.29006089524736E-02 
351	 6.33793662307088E-02 
352	 6.39312886283019E-02 
353	 6.43869629897318E-02 
354	 6.47616996260737E-02 
355	 6.56265021544145E-02 
356	 0.06638961802084 
357	 6.67986260502952E-02 
358	 6.74941154796671E-02 
359	 6.84775835183565E-02 
360	 6.95333346222977E-02 
361	 7.03717845096677E-02 
362	 0.071289101749163 
363	 7.21472389813037E-02 
364	 7.29379172806413E-02 
365	 7.40092862804711E-02 
366	 7.51878939355438E-02 
367	 7.63597778680279E-02 
368	 0.077494690104539 
369	 7.92023391791007E-02 
370	 8.09703967989255E-02 
371	 0.08253020805688 
372	 8.44186009577278E-02 
373	 0.086592307011782 
374	 0.088879414016861 
375	 9.10744361186322E-02 
376	 9.36042763968968E-02 
377	 0.096431408139929 
378	 9.94437022993146E-02 
379	 0.102463039771526 
380	 0.105792635900611 
381	 0.109568740317962 
382	 0.113834323541549 
383	 0.118536383025243 
384	 0.123572717984 
385	 0.128704001132642 
386	 0.133475017641437 
387	 0.138635213407288 
388	 0.144334068782155 
389	 0.150435279845218 
390	 0.156633023659117 
391	 0.163156109255289 
392	 0.169997740547205 
393	 0.176705315120336 
394	 0.183455149570897 
395	 0.190103397111685 
396	 0.196366391223937 
397	 0.202111190331945 
398	 0.207405973655109 
399	 0.21240422374511 
400	 0.217432910707681 
401	 0.222117012991566 
402	 0.226572333712571 
403	 0.231084105432689 
404	 0.23569651551184 
405	 0.240178879367423 
406	 0.244295022814952 
407	 0.24785802316578 
408	 0.251167363547441 
409	 0.254229394184314 
410	 0.256958201581352 
411	 0.25944044929776 
412	 0.26153215717471 
413	 0.263293118528355 
414	 0.265140642930123 
415	 0.266894691618368 
416	 0.268539647919291 
417	 0.270107512429064 
418	 0.271659069701943 
419	 0.273178611089533 
420	 0.274733138530732 
421	 0.276563356005085 
422	 0.278441760925729 
423	 0.280292860284524 
424	 0.282098664293419 
425	 0.283922650104308 
426	 0.285698023958389 
427	 0.287416556009211 
428	 0.289172823976351 
429	 0.291033501697508 
430	 0.292933982220674 
431	 0.29481734564918 
432	 0.296941077788474 
433	 0.299206970599236 
434	 0.301554432343917 
435	 0.30402302903404 
436	 0.306669532758931 
437	 0.309354488792619 
438	 0.311912859047413 
439	 0.314436179890047 
440	 0.316934462463393 
441	 0.319330012721161 
442	 0.321427768193502 
443	 0.323487671969177 
444	 0.325426258482077 
445	 0.327122639311389 
446	 0.328767128781476 
447	 0.330317201509608 
448	 0.331733110862702 
449	 0.333025947794037 
450	 0.334193937878381 
451	 0.335262898920953 
452	 0.336259457323823 
453	 0.337212224539383 
454	 0.338097022788449 
455	 0.338902176272392 
456	 0.33964192691995 
457	 0.340336481439821 
458	 0.340985046783484 
459	 0.341584110734551 
460	 0.342112116577706 
461	 0.342636025719398 
462	 0.343194143477094 
463	 0.343757371506704 
464	 0.344227668061124 
465	 0.344634915895687 
466	 0.34503447315897 
467	 0.345457301536967 
468	 0.34579867913793 
469	 0.346049829262812 
470	 0.346295283930428 
471	 0.346474147028107 
472	 0.34661549735595 
473	 0.346734408636248 
474	 0.346743744967426 
475	 0.346792773844146 
476	 0.346851993167455 
477	 0.346760979307211 
478	 0.346734320570293 
479	 0.346715180850444 
480	 0.346632709352005 
481	 0.346506725426825 
482	 0.346352539265528 
483	 0.346196298000654 
484	 0.346062083988542 
485	 0.345841252290622 
486	 0.345628372537277 
487	 0.345465128529583 
488	 0.34518061698955 
489	 0.344834481970173 
490	 0.344464094977491 
491	 0.344090261995496 
492	 0.343667887488846 
493	 0.343192034123691 
494	 0.34268820219282 
495	 0.342176540722722 
496	 0.341636205502449 
497	 0.341032765717668 
498	 0.340339251536472 
499	 0.339655949175025 
500	 0.33888404489254 
501	 0.337984165416449 
502	 0.337038581089566 
503	 0.336017904448217 
504	 0.334945960781468 
505	 0.333856381420513 
506	 0.332755842094087 
507	 0.331559208069525 
508	 0.330221508218993 
509	 0.328790458975117 
510	 0.327280730874213 
511	 0.325745998120383 
512	 0.324200177808564 
513	 0.322478578960743 
514	 0.320674978633458 
515	 0.318828736325329 
516	 0.316906945937185 
517	 0.314854581378502 
518	 0.312746643801153 
519	 0.310672571423018 
520	 0.308566530484634 
521	 0.306397227670506 
522	 0.304188853477571 
523	 0.302053471784691 
524	 0.299794894427038 
525	 0.29746946935963 
526	 0.29514185914175 
527	 0.292693269727053 
528	 0.290252135989786 
529	 0.287880930091109 
530	 0.285519642789846 
531	 0.283112337577817 
532	 0.280659416097315 
533	 0.278188771274674 
534	 0.275656270870169 
535	 0.273178591196899 
536	 0.270707906035871 
537	 0.268109355578309 
538	 0.265517840133229 
539	 0.262914198099089 
540	 0.260269131979492 
541	 0.257557247767708 
542	 0.254912968214037 
543	 0.252301128624348 
544	 0.249594467243116 
545	 0.246878526852194 
546	 0.244166216405397 
547	 0.241460427293822 
548	 0.238749644085657 
549	 0.236099517982464 
550	 0.233491952740052 
551	 0.230866928419168 
552	 0.228238161238864 
553	 0.225626417426144 
554	 0.223055556349444 
555	 0.220538012521013 
556	 0.218050957711643 
557	 0.215596766708616 
558	 0.213196929649979 
559	 0.21080770319017 
560	 0.208493228136572 
561	 0.206302570198163 
562	 0.204241647627321 
563	 0.202166124392336 
564	 0.200148577636826 
565	 0.198257715278753 
566	 0.196380945788546 
567	 0.194648761413404 
568	 0.193050935069425 
569	 0.191481191828232 
570	 0.190018076122209 
571	 0.188630245372381 
572	 0.18728558923307 
573	 0.185974220748929 
574	 0.184733514083572 
575	 0.183534390107686 
576	 0.182358648759216 
577	 0.181358550424928 
578	 0.180403123565229 
579	 0.179437504343155 
580	 0.178557322442497 
581	 0.177717519560493 
582	 0.176903196300233 
583	 0.176107237264526 
584	 0.175311929600255 
585	 0.174527457974156 
586	 0.173786092318923 
587	 0.173131393836979 
588	 0.172454364901865 
589	 0.171742997992099 
590	 0.171032209236882 
591	 0.170278019918112 
592	 0.169503576720799 
593	 0.168732621027015 
594	 0.168022942552765 
595	 0.167332568642876 
596	 0.16662077275591 
597	 0.165869409890164 
598	 0.165108332951971 
599	 0.164376310948494 
600	 0.163662031151257 
601	 0.162937216989692 
602	 0.162213651017672 
603	 0.161509239383779 
604	 0.16083794742011 
605	 0.160211063868575 
606	 0.159562325405572 
607	 0.15895906410085 
608	 0.158476535756013 
609	 0.158082671565534 
610	 0.157585257950888 
611	 0.157023479258479 
612	 0.15664750472387 
613	 0.156260093073108 
614	 0.155890006134451 
615	 0.155577329525504 
616	 0.155270888554293 
617	 0.154970514667224 
618	 0.154674806736787 
619	 0.154376258562765 
620	 0.154117830992842 
621	 0.153904487422024 
622	 0.153722084728588 
623	 0.153547137206001 
624	 0.153338121582078 
625	 0.15312506980392 
626	 0.152949090988872 
627	 0.152713146441147 
628	 0.152518689752141 
629	 0.152377038105713 
630	 0.152175375081483 
631	 0.151964130375786 
632	 0.151742103022133 
633	 0.151524233153153 
634	 0.151426039218575 
635	 0.15131675315572 
636	 0.151170085366173 
637	 0.15103863770331 
638	 0.150939881526507 
639	 0.15092151409824 
640	 0.150974352494392 
641	 0.150961842760305 
642	 0.15097119384525 
643	 0.151010025776867 
644	 0.151066189761603 
645	 0.151169279198001 
646	 0.15130645566358 
647	 0.151468399124375 
648	 0.151654079837523 
649	 0.151862571611593 
650	 0.152077692054316 
651	 0.15229396044781 
652	 0.152546097773323 
653	 0.152795077063886 
654	 0.15303678572505 
655	 0.153308588747462 
656	 0.153785839748269 
657	 0.154170028745744 
658	 0.154348111280053 
659	 0.154644200540299 
660	 0.154946313167999 
661	 0.155230534395226 
662	 0.155491203943739 
663	 0.155672835328322 
664	 0.155831026614401 
665	 0.155962545531601 
666	 0.156000184103338 
667	 0.156033581598852 
668	 0.15604471128855 
669	 0.156013222938463 
670	 0.155985818161519 
671	 0.155876964966478 
672	 0.155679046601759 
673	 0.155438554838807 
674	 0.155276817795893 
675	 0.155047322138738 
676	 0.154725164845303 
677	 0.154503986031074 
678	 0.154186613181565 
679	 0.153857044273026 
680	 0.153602777157679 
681	 0.153204779485364 
682	 0.152766883484119 
683	 0.152373610988295 
684	 0.152077182864625 
685	 0.151730389522901 
686	 0.151421325121141 
687	 0.15115508803902 
688	 0.150654285477392 
689	 0.15013903903235 
690	 0.14957636659246 
691	 0.14890564295749 
692	 0.148175096963622 
693	 0.147551317603574 
694	 0.147013285379184 
695	 0.146363942772372 
696	 0.145677396727896 
697	 0.145023241273624 
698	 0.144424535130332 
699	 0.143834690600741 
700	 0.143199590103013 
701	 0.142540217120821 
702	 0.141913277393781 
703	 0.141322329102382 
704	 0.140800180000506 
705	 0.140289156129835 
706	 0.139655554175567 
707	 0.139286022743179 
708	 0.139031092123346 
709	 0.138713652928326 
710	 0.138429649729105 
711	 0.138217177257095 
712	 0.138114568644011 
713	 0.138148419103629 
714	 0.138228338385579 
715	 0.138309490091975 
716	 0.138417382310969 
717	 0.138666476991658 
718	 0.138990225235351 
719	 0.139412202426402 
720	 0.139895686573745 
721	 0.140244806751198 
722	 0.140680995923517 
723	 0.141237162769621 
724	 0.141796820561057 
725	 0.142473941334574 
726	 0.143267908740348 
727	 0.144141551029932 
728	 0.144983868914898 
729	 0.145800981101591 
730	 0.146724137082659 
731	 0.147837798374227 
732	 0.149027477281042 
733	 0.150158244184573 
734	 0.151328236394202 
735	 0.152727425799037 
736	 0.15425874863445 
737	 0.155904551306825 
738	 0.157663710406996 
739	 0.159533778686318 
740	 0.161571263716862 
741	 0.163795326579725 
742	 0.166213724128849 
743	 0.168844056460803 
744	 0.171683950361873 
745	 0.174764016365536 
746	 0.178095370568085 
747	 0.181633572780475 
748	 0.185468039089236 
749	 0.189636331354274 
750	 0.194075009560573 
751	 0.198847718936379 
752	 0.203937847148648 
753	 0.209304016095247 
754	 0.214895626641688 
755	 0.220765359297839 
756	 0.226656027609069 
757	 0.232325196305285 
758	 0.237450156425074 
759	 0.24355552218267 
760	 0.252462604951817 
761	 0.26240588646076 
762	 0.270231736335865 
763	 0.276820581379226 
764	 0.283826342372148 
765	 0.290267095819819 
766	 0.296437751941674 
767	 0.30247629729745 
768	 0.308486069041587 
769	 0.314590256364083 
770	 0.320738838017514 
771	 0.326805998803393 
772	 0.332706957026758 
773	 0.338499790596249 
774	 0.344117983716576 
775	 0.349510382202813 
776	 0.354689813058461 
777	 0.359676804128241 
778	 0.364484039702287 
779	 0.369110032900174 
780	 0.373609366794623 
781	 0.377856375879556 
782	 0.381876118129765 
783	 0.385775391393575 
784	 0.38953997147018 
785	 0.393081677224567 
786	 0.396402864998854 
787	 0.399628900960065 
788	 0.40278762572063 
789	 0.40582179920242 
790	 0.40867774903564 
791	 0.411376123730241 
792	 0.413955065025527 
793	 0.416437886385308 
794	 0.418824243256328 
795	 0.421048582255657 
796	 0.423124927120017 
797	 0.425096034300511 
798	 0.427013602835213 
799	 0.428779334722179 
800	 0.430486670988871 
801	 0.432183267912949 
802	 0.433801462050354 
803	 0.435374247380653 
804	 0.436919491409377 
805	 0.438423847222699 
806	 0.439782922313314 
807	 0.441083776406109 
808	 0.442430055493958 
809	 0.443865752333171 
810	 0.445129681970873 
811	 0.446341083094676 
812	 0.447541150872996 
813	 0.448674245918168 
814	 0.449954903450449 
815	 0.451344656840228 
816	 0.452755007047821 
817	 0.454155108838636 
818	 0.455412672833316 
819	 0.456564147237056 
820	 0.457708995173401 
821	 0.458871402757596 
822	 0.459973036375074 
823	 0.461038115642283 
824	 0.462119641090855 
825	 0.463151508611439 
826	 0.464076877060287 
827	 0.464916988121993 
828	 0.465730108047349 
829	 0.466574827926959 
830	 0.467388854592747 
831	 0.468158046961311 
832	 0.468986464693339 
833	 0.469745966558221 
834	 0.470394477639462 
835	 0.470970410305985 
836	 0.471601511690397 
837	 0.47227990114154 
838	 0.472932625029371 
839	 0.473481004110222 
840	 0.474022513028762 
841	 0.474485448371069 
842	 0.474923887293817 
843	 0.47546003783497 
844	 0.47591915702705 
845	 0.476277955843907 
846	 0.476583019732212 
847	 0.476948470056638 
848	 0.477250527445476 
849	 0.477514369215469 
850	 0.47778344862089 
851	 0.478062187694347 
852	 0.478216794510296 
853	 0.478359671004815 
854	 0.478632112737921 
855	 0.478898567118355 
856	 0.479085594452503 
857	 0.479183205887697 
858	 0.479229370409864 
859	 0.479335494918087 
860	 0.479499218900788 
861	 0.479710622075479 
862	 0.479954974469586 
863	 0.480097601376173 
864	 0.480117726481976 
865	 0.480154096441956 
866	 0.480557152538463 
867	 0.480783445788398 
868	 0.480904068433865 
869	 0.481099509742857 
870	 0.481457227674863 
871	 0.481544573933958 
872	 0.481568994297618 
873	 0.481818883430135 
874	 0.481969426788433 
875	 0.482085571499132 
876	 0.482227047716737 
877	 0.482396164354812 
878	 0.482401312078538 
879	 0.482363041432932 
880	 0.482376653382637 
881	 0.482492992233498 
882	 0.48238837628568 
883	 0.482206932901176 
884	 0.482081575006913 
885	 0.482050208080962 
886	 0.481959684970654 
887	 0.481820587702254 
888	 0.481668274240318 
889	 0.48147037820464 
890	 0.481327857573159 
891	 0.481104329428095 
892	 0.480744016494759 
893	 0.480669431364982 
894	 0.480334225601156 
895	 0.479822377118359 
896	 0.479431431958168 
897	 0.479181197917718 
898	 0.478795175939679 
899	 0.478385510781268 
900	 0.478198851454958 
901	 0.478049680652284 
902	 0.477721053190051 
903	 0.477290914022824 
904	 0.476988551039886 
905	 0.476755442685879 
906	 0.476493771869757 
907	 0.476145330923581 
908	 0.475688817319047 
909	 0.475155478720372 
910	 0.474873852072754 
911	 0.474911659226842 
912	 0.474909847513363 
913	 0.474748123441962 
914	 0.474811523791509 
915	 0.475249890699711 
916	 0.475578043092423 
917	 0.476037504771908 
918	 0.476544080381706 
919	 0.476984364769273 
920	 0.477379278157658 
921	 0.477804314038457 
922	 0.478091664397996 
923	 0.47817639076698 
924	 0.478598048913656 
925	 0.479030191011954 
926	 0.479074054159664 
927	 0.478563716216204 
928	 0.478648228782516 
929	 0.478958251815616 
930	 0.478980304706392 
931	 0.478313026042624 
932	 0.478289047245004 
933	 0.477825523112772 
934	 0.477295938184162 
935	 0.478186224046945 
936	 0.479250301029574 
937	 0.480250255394911 
938	 0.481040705163496 
939	 0.481535389059399 
940	 0.482059759165206 
941	 0.48196889070754 
942	 0.48141548032 
943	 0.481345099440752 
944	 0.481448097716064 
945	 0.481480604411293 
946	 0.481422597825066 
947	 0.481530033193749 
948	 0.48171497605514 
949	 0.482196405844181 
950	 0.482763628268471 
951	 0.482701904027033 
952	 0.483364093292211 
953	 0.483851633585657 
954	 0.483747915471866 
955	 0.484030362828235 
956	 0.484643924133628 
957	 0.484907917349717 
958	 0.484978024517373 
959	 0.486667856664474 
960	 0.486806356559993 
961	 0.486585340095005 
962	 0.487238616062943 
963	 0.487885206463249 
964	 0.488090781681079 
965	 0.488062040522142 
966	 0.488148945083936 
967	 0.488599066153661 
968	 0.488733842079343 
969	 0.488917660383464 
970	 0.489449145857177 
971	 0.489662973418335 
972	 0.489370699852803 
973	 0.489255799856222 
974	 0.489715118312091 
975	 0.489424165400288 
976	 0.489236204630451 
977	 0.489116930936807 
978	 0.488900246754593 
979	 0.489025571108616 
980	 0.489052494350373 
981	 0.48865692963011 
982	 0.487967566723893 
983	 0.488359310755925 
984	 0.488840858351318 
985	 0.48865283743722 
986	 0.487871532782723 
987	 0.489090762844145 
988	 0.489178788413035 
989	 0.488512046245475 
990	 0.488418633664621 
991	 0.48788224377603 
992	 0.487669278430381 
993	 0.487783845922729 
994	 0.487827108034273 
995	 0.48721665764685 
996	 0.487060236660236 
997	 0.486722813901051 
998	 0.485499698560538 
999	 0.48531748843929 
1000	 0.485133344991151 
1001	 0.490863838007485 
1002	 0.490735781078161 
1003	 0.490531243804244 
1004	 0.490300596266803 
1005	 0.489945390241012 
1006	 0.489618906008333 
1007	 0.489185713139798 
1008	 0.489062447694288 
1009	 0.488825600741563 
1010	 0.488633610841265 
1011	 0.488499181169631 
1012	 0.488063297619403 
1013	 0.487672160993395 
1014	 0.487570766597897 
1015	 0.487386621125376 
1016	 0.487325434699177 
1017	 0.487347407305802 
1018	 0.487512300108916 
1019	 0.487441677562252 
1020	 0.487490889394939 
1021	 0.487429284640153 
1022	 0.487121280035543 
1023	 0.487111933930987 
1024	 0.487074910044698 
1025	 0.487008490473699 
1026	 0.487172994081257 
1027	 0.48721144061111 
1028	 0.487162352096254 
1029	 0.487220840678549 
1030	 0.48740563247821 
1031	 0.487499428508785 
1032	 0.487562044277125 
1033	 0.487592951298665 
1034	 0.487716687205501 
1035	 0.487744156026901 
1036	 0.487796630369064 
1037	 0.487895695996624 
1038	 0.488033014432995 
1039	 0.488266953346841 
1040	 0.488267481301815 
1041	 0.488321612202273 
1042	 0.488348562285027 
1043	 0.488046780468999 
1044	 0.487865304451148 
1045	 0.48769436107905 
1046	 0.487549001866504 
1047	 0.487411591309906 
1048	 0.487289980140792 
1049	 0.487088365007018 
1050	 0.486838494915646 
1051	 0.486397090439743 
1052	 0.485953195653064 
1053	 0.485505995160737 
1054	 0.485030633940107 
1055	 0.484684965017423 
1056	 0.484339264898994 
1057	 0.483832077202322 
1058	 0.483219096548301 
1059	 0.482601192872824 
1060	 0.481890532258195 
1061	 0.481124663066368 
1062	 0.480450214933087 
1063	 0.479678229432087 
1064	 0.478681432454424 
1065	 0.477625341711345 
1066	 0.476565454973959 
1067	 0.475404853761513 
1068	 0.474248250773699 
1069	 0.473025982975926 
1070	 0.471643322064653 
1071	 0.470051836626318 
1072	 0.468551524968331 
1073	 0.466903522807482 
1074	 0.465398186657628 
1075	 0.464069262842507 
1076	 0.462538203407981 
1077	 0.461026609509311 
1078	 0.45948955248778 
1079	 0.457764793895065 
1080	 0.456246214202969 
1081	 0.454859071133559 
1082	 0.453702891749398 
1083	 0.452643422898792 
1084	 0.451777702000779 
1085	 0.450848617017625 
1086	 0.449912068389929 
1087	 0.449167001473134 
1088	 0.44834707986473 
1089	 0.447971601263634 
1090	 0.448019006407817 
1091	 0.447902959351094 
1092	 0.4479062418779 
1093	 0.448045139301403 
1094	 0.448227428174165 
1095	 0.448710073630252 
1096	 0.449262301767444 
1097	 0.450183487894255 
1098	 0.450910091866589 
1099	 0.451631949080374 
1100	 0.452368258722324 
1101	 0.453110731187606 
1102	 0.453956014574856 
1103	 0.454894308584277 
1104	 0.455826448376 
1105	 0.4569641034579 
1106	 0.457972216061795 
1107	 0.458991044327209 
1108	 0.459929532023312 
1109	 0.460783323264847 
1110	 0.461634101893347 
1111	 0.462375307019065 
1112	 0.462907537965112 
1113	 0.463619393623292 
1114	 0.464158900652867 
1115	 0.465139164373354 
1116	 0.466671986542951 
1117	 0.467858579321468 
1118	 0.469192823326348 
1119	 0.47048501563477 
1120	 0.471506335218359 
1121	 0.472562929783523 
1122	 0.473445500081577 
1123	 0.474650246566124 
1124	 0.475923886766105 
1125	 0.477063892282527 
1126	 0.478344308927488 
1127	 0.480007160775554 
1128	 0.48116957519571 
1129	 0.48183328646895 
1130	 0.48266918135663 
1131	 0.483333847427814 
1132	 0.484018727560181 
1133	 0.484830798470138 
1134	 0.485263115605217 
1135	 0.485332802596582 
1136	 0.485634685600775 
1137	 0.485745034377276 
1138	 0.486016104114924 
1139	 0.486408669276737 
1140	 0.487076661150535 
1141	 0.487454349631302 
1142	 0.487980909134851 
