Wavelength	09/27/123 at 12:25:08
350	 0.060877020204149 
351	 6.10462711300533E-02 
352	 6.18183974497552E-02 
353	 6.27200427410411E-02 
354	 6.30903347457631E-02 
355	 6.38789158007134E-02 
356	 6.46455267278278E-02 
357	 6.51565684906756E-02 
358	 6.58765665524739E-02 
359	 6.68137577728325E-02 
360	 6.77926052616115E-02 
361	 6.85796817864152E-02 
362	 6.94330969977411E-02 
363	 7.03400079402318E-02 
364	 7.12725719634095E-02 
365	 7.21976288558294E-02 
366	 7.34681362394396E-02 
367	 7.48401371110326E-02 
368	 7.58796017749338E-02 
369	 7.73233204128422E-02 
370	 7.90115246655931E-02 
371	 8.07980414922795E-02 
372	 8.28256372848666E-02 
373	 0.084809785531747 
374	 8.68948903410104E-02 
375	 8.94209403475056E-02 
376	 9.21882247205233E-02 
377	 9.50774037613154E-02 
378	 9.80721747671301E-02 
379	 0.101331003738817 
380	 0.104789615151498 
381	 0.108625092295292 
382	 0.113080056868686 
383	 0.117777230508264 
384	 0.122745936523102 
385	 0.127940169989037 
386	 0.133139885958246 
387	 0.138605683253102 
388	 0.144429594779353 
389	 0.150644989904315 
390	 0.15719698173907 
391	 0.163905743727855 
392	 0.170732267755313 
393	 0.178051718767918 
394	 0.185295721338523 
395	 0.192235725895232 
396	 0.19876076212582 
397	 0.20485526137398 
398	 0.210406033779793 
399	 0.215534754879247 
400	 0.220827753245403 
401	 0.225740218667865 
402	 0.230497845985562 
403	 0.235520114805006 
404	 0.240396354755543 
405	 0.245032241957304 
406	 0.249373119608906 
407	 0.253439986694803 
408	 0.257010416576471 
409	 0.26017493745289 
410	 0.263123210985403 
411	 0.265720723655449 
412	 0.268000049593094 
413	 0.27002674020606 
414	 0.271870860945593 
415	 0.273652863337538 
416	 0.275375649370352 
417	 0.277002088359727 
418	 0.27864177385726 
419	 0.280321055564207 
420	 0.282079206113148 
421	 0.284021826973915 
422	 0.285932658274431 
423	 0.28780575880643 
424	 0.289705657694212 
425	 0.291662173699892 
426	 0.29358266039612 
427	 0.295442700189107 
428	 0.297342839373401 
429	 0.299218236399937 
430	 0.301145452477688 
431	 0.303237437129538 
432	 0.305503084158743 
433	 0.307890873523162 
434	 0.3103892689279 
435	 0.313066886473414 
436	 0.315884748233068 
437	 0.318745653410623 
438	 0.321544711129278 
439	 0.324291583571399 
440	 0.32696116250014 
441	 0.32949875358684 
442	 0.331807188468077 
443	 0.333955211460902 
444	 0.335929159470642 
445	 0.337726238839192 
446	 0.339478371242458 
447	 0.341117494567937 
448	 0.34259185045014 
449	 0.343915898001867 
450	 0.34511319740011 
451	 0.346215078007644 
452	 0.347247237315652 
453	 0.348243558057378 
454	 0.349165590918655 
455	 0.349984824861728 
456	 0.350697120353178 
457	 0.351387101961331 
458	 0.35203373068536 
459	 0.352612833772683 
460	 0.353193962973436 
461	 0.353747379224991 
462	 0.354271694184876 
463	 0.354764565932341 
464	 0.355217712938842 
465	 0.355695765755142 
466	 0.356215353985362 
467	 0.356565629438008 
468	 0.356812800676148 
469	 0.357003390560038 
470	 0.357163538437296 
471	 0.357291167370275 
472	 0.357413237219587 
473	 0.357535091914092 
474	 0.357600814848603 
475	 0.357606394489707 
476	 0.357538827265735 
477	 0.357384848377041 
478	 0.35727630463302 
479	 0.357166285076874 
480	 0.35700862277819 
481	 0.356848306867084 
482	 0.356646983459467 
483	 0.356424874351951 
484	 0.356230478248469 
485	 0.355892226560781 
486	 0.355541189895504 
487	 0.355255890565066 
488	 0.354844695455499 
489	 0.354452905855705 
490	 0.35406545141643 
491	 0.353589422248825 
492	 0.353079079342902 
493	 0.352513418803559 
494	 0.351897232339162 
495	 0.351246095538018 
496	 0.350566004648914 
497	 0.349848609484372 
498	 0.34907636762694 
499	 0.348218450391122 
500	 0.34727472656997 
501	 0.34626288125062 
502	 0.345196097328888 
503	 0.344074792569891 
504	 0.342886133108865 
505	 0.341615353475217 
506	 0.34030434337117 
507	 0.338915529436636 
508	 0.337411017435072 
509	 0.335786108277508 
510	 0.334119840669703 
511	 0.33240565033939 
512	 0.330602737182638 
513	 0.328754136072356 
514	 0.326825971887651 
515	 0.32478565741792 
516	 0.322623048502332 
517	 0.320434549757683 
518	 0.318191178749401 
519	 0.315863188141132 
520	 0.313493922540038 
521	 0.311149129673033 
522	 0.308818782182273 
523	 0.306469332683813 
524	 0.304008248126165 
525	 0.301475766637289 
526	 0.298930288811679 
527	 0.296373536955153 
528	 0.293777583998627 
529	 0.291201783167736 
530	 0.288686113052201 
531	 0.286086755646746 
532	 0.283428036354532 
533	 0.280783181992837 
534	 0.27816185015096 
535	 0.275556325011998 
536	 0.272917828150801 
537	 0.270178770544467 
538	 0.267451601547587 
539	 0.264729717239985 
540	 0.261985293729419 
541	 0.259171190847953 
542	 0.256347903029744 
543	 0.2535487789938 
544	 0.250755604537028 
545	 0.247975637693592 
546	 0.245184210742348 
547	 0.242372554802235 
548	 0.239549468836297 
549	 0.236804666562853 
550	 0.23413626326754 
551	 0.231477933359458 
552	 0.228748013532972 
553	 0.226041085962763 
554	 0.22341292229426 
555	 0.22084495659871 
556	 0.218310246812862 
557	 0.215794162264985 
558	 0.213323934699405 
559	 0.210967734635786 
560	 0.208653958306731 
561	 0.206415053197812 
562	 0.204353493756368 
563	 0.202319145750628 
564	 0.20034255302611 
565	 0.198461670422435 
566	 0.19659880737842 
567	 0.194858553684274 
568	 0.193239497020679 
569	 0.191664249405533 
570	 0.190186649433546 
571	 0.188788290370829 
572	 0.187441350861505 
573	 0.186106619718889 
574	 0.18485289065142 
575	 0.183670347523101 
576	 0.182543736158855 
577	 0.181551632417871 
578	 0.180587917353171 
579	 0.17961584241578 
580	 0.178722318318456 
581	 0.177839358689321 
582	 0.176998334009972 
583	 0.176234157253534 
584	 0.175432827459696 
585	 0.174622359684547 
586	 0.173855638076792 
587	 0.173192826965345 
588	 0.172496691460764 
589	 0.171745524704714 
590	 0.170986162410588 
591	 0.170226572948224 
592	 0.169485270693065 
593	 0.168762595104664 
594	 0.168078749788849 
595	 0.167371817433221 
596	 0.166651268564184 
597	 0.165916818859258 
598	 0.165109448327691 
599	 0.164352545692224 
600	 0.163670289359691 
601	 0.163027942874161 
602	 0.162302912014165 
603	 0.16158240023516 
604	 0.160929524367125 
605	 0.160345916886446 
606	 0.159741722839913 
607	 0.159164530092556 
608	 0.158674047003664 
609	 0.158211850124083 
610	 0.157761326197441 
611	 0.157324566247364 
612	 0.156909163918975 
613	 0.156474011073534 
614	 0.156091297409395 
615	 0.155808468603656 
616	 0.155552746695379 
617	 0.15525299630361 
618	 0.15491790803212 
619	 0.154600168840641 
620	 0.154363184698019 
621	 0.154166133552775 
622	 0.153963633571202 
623	 0.15374062155704 
624	 0.153526058656035 
625	 0.153327635909353 
626	 0.153142554561212 
627	 0.152948192899822 
628	 0.152756123392536 
629	 0.152571579969317 
630	 0.152383487847039 
631	 0.15215732923499 
632	 0.151906770479533 
633	 0.151673713560267 
634	 0.151557042129053 
635	 0.151446089233781 
636	 0.151302760289928 
637	 0.151150354957111 
638	 0.1510520484927 
639	 0.150989266517693 
640	 0.150944103807051 
641	 0.150923525150271 
642	 0.150971453382501 
643	 0.151049003677452 
644	 0.151097573946247 
645	 0.151135349375357 
646	 0.151206147430503 
647	 0.151338601654575 
648	 0.151538334127719 
649	 0.151768470396491 
650	 0.151983376437421 
651	 0.152165702850755 
652	 0.152376942529216 
653	 0.152596523996035 
654	 0.15282278215945 
655	 0.15308314048388 
656	 0.153544330694375 
657	 0.153920183911932 
658	 0.154110425130557 
659	 0.154456029244703 
660	 0.154749757242285 
661	 0.154962763286722 
662	 0.155137119766763 
663	 0.155341829074395 
664	 0.155545142786615 
665	 0.155687236548675 
666	 0.155692456606811 
667	 0.155715175127498 
668	 0.155718804984495 
669	 0.155664089071415 
670	 0.155626152682035 
671	 0.155537616940184 
672	 0.155367333418927 
673	 0.155124840370737 
674	 0.154986653542414 
675	 0.154781819348689 
676	 0.154443738406782 
677	 0.154108578369714 
678	 0.153796988270245 
679	 0.153511728148978 
680	 0.15323281203338 
681	 0.15289016629417 
682	 0.152515572694886 
683	 0.152137923272014 
684	 0.151782627959697 
685	 0.151434789525004 
686	 0.151180456979684 
687	 0.150987075429952 
688	 0.150497022444376 
689	 0.149954987445995 
690	 0.149367234916584 
691	 0.148711374390309 
692	 0.148067632396243 
693	 0.147438788252581 
694	 0.146819846197 
695	 0.1462049466195 
696	 0.145618561690875 
697	 0.145026613688802 
698	 0.14439457945039 
699	 0.143732713152474 
700	 0.143101451010399 
701	 0.142531159770392 
702	 0.142013307086741 
703	 0.141418567619893 
704	 0.14087458122249 
705	 0.140376971238358 
706	 0.139776262739048 
707	 0.139377064139182 
708	 0.139097972075263 
709	 0.138817171502602 
710	 0.13855049737545 
711	 0.138325438627201 
712	 0.138201764799688 
713	 0.138238879211061 
714	 0.138308413771137 
715	 0.138375963484788 
716	 0.138462167448607 
717	 0.13864670878543 
718	 0.138943699394402 
719	 0.139369272398296 
720	 0.139854584563411 
721	 0.140215552978356 
722	 0.140598572851233 
723	 0.14108622328692 
724	 0.141666978223992 
725	 0.142309216209562 
726	 0.143010562357846 
727	 0.143790656568312 
728	 0.144649623917741 
729	 0.145542522520754 
730	 0.146487286436042 
731	 0.147497314808279 
732	 0.148532131380026 
733	 0.149678525566473 
734	 0.150941468377684 
735	 0.152281470113284 
736	 0.153752603717264 
737	 0.15533945140203 
738	 0.157046816024616 
739	 0.158902271228071 
740	 0.160950764306597 
741	 0.163159414779285 
742	 0.165510284331932 
743	 0.168102209804967 
744	 0.170928333309902 
745	 0.173975871370068 
746	 0.177216968224135 
747	 0.180766617545509 
748	 0.184662784787941 
749	 0.188891927838806 
750	 0.193369233172049 
751	 0.198188496445872 
752	 0.203316585088638 
753	 0.208711155422382 
754	 0.214391332628898 
755	 0.220402896453177 
756	 0.226452531378015 
757	 0.232263381632085 
758	 0.237583937220412 
759	 0.243962114424302 
760	 0.253209320291413 
761	 0.263352158361392 
762	 0.271177032345772 
763	 0.277895659270139 
764	 0.285293073240011 
765	 0.292158341102436 
766	 0.298559351398126 
767	 0.304817595432502 
768	 0.311225157401449 
769	 0.317725525328406 
770	 0.324206110070416 
771	 0.330548118050235 
772	 0.336734170396557 
773	 0.342833429427062 
774	 0.348797018250264 
775	 0.354557033150854 
776	 0.360054360949096 
777	 0.365282867828359 
778	 0.370318092368939 
779	 0.375220435018817 
780	 0.379988407930851 
781	 0.384465523941572 
782	 0.388679164996343 
783	 0.392767393000177 
784	 0.396781140576624 
785	 0.400612087927929 
786	 0.404199102588145 
787	 0.407567305669596 
788	 0.410841707533 
789	 0.414009440112416 
790	 0.417026800612828 
791	 0.419861667994885 
792	 0.422651593243723 
793	 0.425312116417634 
794	 0.427722471544139 
795	 0.430126972659695 
796	 0.432342137472208 
797	 0.434359395963847 
798	 0.436327520996824 
799	 0.43816293927924 
800	 0.439940645454007 
801	 0.441699332733996 
802	 0.443390068757578 
803	 0.445062802535974 
804	 0.446696999995276 
805	 0.448248451824176 
806	 0.449652859209238 
807	 0.451043526984305 
808	 0.452487461795628 
809	 0.453955205174762 
810	 0.455197872773768 
811	 0.456366703077449 
812	 0.457573671238764 
813	 0.458849217883362 
814	 0.460057201037512 
815	 0.461342224556319 
816	 0.462796480035743 
817	 0.46432674386655 
818	 0.465677113743062 
819	 0.466915669117151 
820	 0.468175831276894 
821	 0.469340210565677 
822	 0.470425071761293 
823	 0.471605997008206 
824	 0.473005462730097 
825	 0.474015544423464 
826	 0.47487872112507 
827	 0.475746373017413 
828	 0.476596707080829 
829	 0.477549251346046 
830	 0.478441648750644 
831	 0.479195318276787 
832	 0.479950618228241 
833	 0.480790488040087 
834	 0.481622402723832 
835	 0.482366304656388 
836	 0.483087280029339 
837	 0.483704377113197 
838	 0.484269808846675 
839	 0.484873152061079 
840	 0.485496592188841 
841	 0.486070122782254 
842	 0.486554944307761 
843	 0.486946320677763 
844	 0.487350888192457 
845	 0.487776926253246 
846	 0.488204144252869 
847	 0.488602033409152 
848	 0.488875389923221 
849	 0.489067051386729 
850	 0.489252828214153 
851	 0.489502130778356 
852	 0.489628448902131 
853	 0.489701720679539 
854	 0.489876232936414 
855	 0.490216760374226 
856	 0.490475521308723 
857	 0.490594141116473 
858	 0.490644369749977 
859	 0.490776953207574 
860	 0.490944880559792 
861	 0.491095835206899 
862	 0.491204698773644 
863	 0.491380585283022 
864	 0.491478511680887 
865	 0.491504012298815 
866	 0.491764466321689 
867	 0.492002475730998 
868	 0.49217639109933 
869	 0.492331702045526 
870	 0.492582775276736 
871	 0.492784358774011 
872	 0.49296433422242 
873	 0.493159347520902 
874	 0.493129394107703 
875	 0.493226646552517 
876	 0.493372634335508 
877	 0.493334781613351 
878	 0.493495183301081 
879	 0.493583383778331 
880	 0.493518229120492 
881	 0.493433248372624 
882	 0.493277988570917 
883	 0.493177899890698 
884	 0.493126051184509 
885	 0.492960150578535 
886	 0.492850760552134 
887	 0.492655517017677 
888	 0.492377211016823 
889	 0.492305180754865 
890	 0.492107654600796 
891	 0.491791005011326 
892	 0.491423169652696 
893	 0.491039482686615 
894	 0.490589645853475 
895	 0.49005227575458 
896	 0.489473488435525 
897	 0.489076869792501 
898	 0.488650546285749 
899	 0.48825827941842 
900	 0.488030455163907 
901	 0.487681416424744 
902	 0.487311004157799 
903	 0.48703932521414 
904	 0.486894249872439 
905	 0.486497986381594 
906	 0.48600790774175 
907	 0.485535409848731 
908	 0.485074397086946 
909	 0.484679160248239 
910	 0.484371371936211 
911	 0.484193383100723 
912	 0.484200543983869 
913	 0.484194084645786 
914	 0.484120142817591 
915	 0.484109759974852 
916	 0.48448735798749 
917	 0.48518109877038 
918	 0.485947320639657 
919	 0.486524294126414 
920	 0.486725993199672 
921	 0.487115029284331 
922	 0.487609477506155 
923	 0.487999392446795 
924	 0.488382664235171 
925	 0.488869811757623 
926	 0.489071872565165 
927	 0.488593851560127 
928	 0.488267754456794 
929	 0.488136818240972 
930	 0.487762586541828 
931	 0.486617170115888 
932	 0.486496684322488 
933	 0.48580786111174 
934	 0.484941544360545 
935	 0.485840063985583 
936	 0.486741106695555 
937	 0.487962142858327 
938	 0.48909210240666 
939	 0.489237995502704 
940	 0.48905933763 
941	 0.489233852682861 
942	 0.489502803862242 
943	 0.488973801011951 
944	 0.489828852604896 
945	 0.490371321490195 
946	 0.489692760228024 
947	 0.4887951338403 
948	 0.489363564349351 
949	 0.490389195452546 
950	 0.490960429962952 
951	 0.491147764443791 
952	 0.491450558816614 
953	 0.491772602425125 
954	 0.492176163390858 
955	 0.493074277894761 
956	 0.493562033613987 
957	 0.493652554787497 
958	 0.493867031780628 
959	 0.495119034432987 
960	 0.495971534931063 
961	 0.496270586524081 
962	 0.496263582799207 
963	 0.496211785808813 
964	 0.496848058249064 
965	 0.497544382682491 
966	 0.497633619255814 
967	 0.497159423207699 
968	 0.497288961569411 
969	 0.49814978558925 
970	 0.499226057153466 
971	 0.499362134014453 
972	 0.498646823309332 
973	 0.498351083378122 
974	 0.499175269989239 
975	 0.498940120207046 
976	 0.498691223283635 
977	 0.498641984408045 
978	 0.498693666939872 
979	 0.498687613391408 
980	 0.498428348102711 
981	 0.498158585698906 
982	 0.498235798619241 
983	 0.498854998264106 
984	 0.499170818184159 
985	 0.499020820851676 
986	 0.49862647255813 
987	 0.498412455410274 
988	 0.498291640463123 
989	 0.497932086289879 
990	 0.49726742252908 
991	 0.497622465739897 
992	 0.497393031732802 
993	 0.49691388233451 
994	 0.497033032763589 
995	 0.497153106654245 
996	 0.497181043500767 
997	 0.496680066904947 
998	 0.49541924344092 
999	 0.4941804155374 
1000	 0.493981919560675 
1001	 0.499964827893616 
1002	 0.499686298047338 
1003	 0.499181252998597 
1004	 0.498905732296112 
1005	 0.49857042899079 
1006	 0.498180048435137 
1007	 0.497820714650938 
1008	 0.497789279913284 
1009	 0.497240178510461 
1010	 0.496897110347395 
1011	 0.496592877413354 
1012	 0.496040532391396 
1013	 0.495981920563581 
1014	 0.495980841060341 
1015	 0.495872404943335 
1016	 0.495893797085604 
1017	 0.495900744898328 
1018	 0.495855724011417 
1019	 0.495656892963421 
1020	 0.495539481458487 
1021	 0.495398094704939 
1022	 0.495060460366031 
1023	 0.495014728001528 
1024	 0.49506851812647 
1025	 0.495256716441472 
1026	 0.495639277739049 
1027	 0.495858716875934 
1028	 0.495926630400724 
1029	 0.495946006230774 
1030	 0.495970929318009 
1031	 0.496003384079515 
1032	 0.495930276358254 
1033	 0.496161650775974 
1034	 0.496421352726301 
1035	 0.496443772844865 
1036	 0.496520685886278 
1037	 0.496431295711973 
1038	 0.496490034429064 
1039	 0.49668172022875 
1040	 0.496668758692076 
1041	 0.496852688170126 
1042	 0.496833851442726 
1043	 0.496507769048121 
1044	 0.496340031581894 
1045	 0.496243988564794 
1046	 0.496022442187049 
1047	 0.495819121248783 
1048	 0.495746346329819 
1049	 0.495488360503119 
1050	 0.495234972847503 
1051	 0.495063180515309 
1052	 0.494903999955646 
1053	 0.494809654835344 
1054	 0.494479398983363 
1055	 0.493874291550184 
1056	 0.493123431277511 
1057	 0.492400658459512 
1058	 0.491543321557416 
1059	 0.490784420331635 
1060	 0.490109974963421 
1061	 0.489340903673709 
1062	 0.488530806086682 
1063	 0.487608738061107 
1064	 0.486491310482122 
1065	 0.48539026149912 
1066	 0.484301724485033 
1067	 0.482976559987372 
1068	 0.481759719616723 
1069	 0.480594652111695 
1070	 0.479212413893199 
1071	 0.477774592371676 
1072	 0.47618072215946 
1073	 0.474327103762268 
1074	 0.472523682803594 
1075	 0.470613926901868 
1076	 0.468725606720338 
1077	 0.467000115651246 
1078	 0.465491947958269 
1079	 0.46409041784731 
1080	 0.462624501001525 
1081	 0.461069864060742 
1082	 0.459639852520655 
1083	 0.458408593245179 
1084	 0.457204130930221 
1085	 0.456266801011472 
1086	 0.455569305965917 
1087	 0.454917277032987 
1088	 0.454338981124342 
1089	 0.453995445456945 
1090	 0.453851983814663 
1091	 0.453780892998466 
1092	 0.453655291206632 
1093	 0.453742530700812 
1094	 0.453892117340746 
1095	 0.454271839091375 
1096	 0.454753327546476 
1097	 0.455540325226527 
1098	 0.456231613515449 
1099	 0.456931481058842 
1100	 0.457756330700092 
1101	 0.45885666077928 
1102	 0.459735797739069 
1103	 0.460616635918664 
1104	 0.461495877989718 
1105	 0.462288415111407 
1106	 0.463098644142567 
1107	 0.463987171393105 
1108	 0.46488465785478 
1109	 0.465716895649031 
1110	 0.466455728611599 
1111	 0.46729457060094 
1112	 0.468160812562342 
1113	 0.469034556190065 
1114	 0.469942862950174 
1115	 0.47094273112387 
1116	 0.472047532001781 
1117	 0.473094398176767 
1118	 0.474140598281205 
1119	 0.475313165105216 
1120	 0.476624291111145 
1121	 0.477747838629036 
1122	 0.478647401724258 
1123	 0.479800062005894 
1124	 0.480947463593642 
1125	 0.48181427156038 
1126	 0.482952307913508 
1127	 0.4843704734742 
1128	 0.485522138880867 
1129	 0.486508130335366 
1130	 0.487256835413476 
1131	 0.487802108171447 
1132	 0.488296575704842 
1133	 0.488351996563677 
1134	 0.488718830645614 
1135	 0.489214708336013 
1136	 0.489669256698647 
1137	 0.490288929539105 
1138	 0.490721561898851 
1139	 0.49113857826975 
1140	 0.491324519891062 
1141	 0.491715798312056 
1142	 0.492126038814111 
