Wavelength	09/27/123 at 12:21:18
350	 0.109467478709393 
351	 0.109600639690914 
352	 0.109940382064971 
353	 0.110343198020573 
354	 0.110593632780751 
355	 0.111303145214128 
356	 0.111799260154028 
357	 0.111826695117644 
358	 0.112206491239402 
359	 0.112854613134415 
360	 0.113434573028595 
361	 0.113582354951653 
362	 0.114110143110746 
363	 0.114767224323543 
364	 0.115278694886366 
365	 0.115541034531608 
366	 0.115747226993678 
367	 0.116022558303553 
368	 0.116457166529274 
369	 0.117125413670996 
370	 0.11772849838487 
371	 0.118183666509477 
372	 0.119014433285088 
373	 0.119631647361966 
374	 0.120055821377969 
375	 0.120595968447869 
376	 0.121138842563735 
377	 0.122072899968609 
378	 0.123325500322409 
379	 0.123593565528794 
380	 0.12401788379449 
381	 0.124806897816735 
382	 0.12571671569383 
383	 0.126602112041779 
384	 0.127510601174585 
385	 0.128388888810505 
386	 0.128915906808747 
387	 0.129482878238799 
388	 0.130141466274835 
389	 0.130789819291315 
390	 0.13136885389164 
391	 0.132114279993545 
392	 0.133029979965517 
393	 0.133640109156307 
394	 0.134302067404025 
395	 0.135001005318361 
396	 0.135601428826186 
397	 0.136190878669686 
398	 0.136697599296952 
399	 0.137179091059737 
400	 0.137995580605878 
401	 0.138507852724599 
402	 0.138836548063276 
403	 0.139329182094011 
404	 0.139758437926611 
405	 0.14020020527402 
406	 0.140717600673584 
407	 0.141307806999404 
408	 0.141967090615649 
409	 0.142627317984583 
410	 0.143214184117502 
411	 0.143788358539655 
412	 0.14431357970927 
413	 0.144813293934344 
414	 0.145419136891624 
415	 0.146089460780779 
416	 0.146717712617473 
417	 0.147202157423463 
418	 0.147708569879394 
419	 0.148261772841273 
420	 0.148877010585443 
421	 0.149605647926227 
422	 0.150175997622072 
423	 0.150709758455853 
424	 0.151420863309389 
425	 0.152076111204468 
426	 0.152728550828245 
427	 0.153418660849852 
428	 0.154134872944572 
429	 0.154851939157833 
430	 0.155563730782646 
431	 0.156274235135438 
432	 0.156979636784731 
433	 0.157684145462557 
434	 0.158364283606017 
435	 0.158961416975457 
436	 0.159568638969221 
437	 0.160218311991546 
438	 0.160900433541808 
439	 0.161497148593455 
440	 0.162137224276402 
441	 0.162837517788964 
442	 0.163450499308624 
443	 0.164056632404854 
444	 0.164622678686561 
445	 0.165129719569702 
446	 0.165775645288172 
447	 0.166415145050993 
448	 0.166968745870142 
449	 0.167471885789789 
450	 0.16800439351634 
451	 0.168545946803233 
452	 0.169047317446749 
453	 0.169498127960277 
454	 0.169985415059917 
455	 0.170506951962016 
456	 0.170956058413866 
457	 0.171395963782505 
458	 0.171836362085181 
459	 0.172269914859997 
460	 0.172655383307001 
461	 0.173046224088828 
462	 0.1734570525693 
463	 0.173843083519355 
464	 0.174274789176282 
465	 0.174695349997996 
466	 0.17505072296284 
467	 0.175437278921581 
468	 0.175830589176688 
469	 0.176222196386134 
470	 0.176621985810452 
471	 0.177008658477018 
472	 0.177422882642553 
473	 0.177873602009409 
474	 0.178227409007777 
475	 0.17860394692971 
476	 0.179014731292954 
477	 0.179387858095734 
478	 0.179794877263683 
479	 0.180253606944929 
480	 0.180759519781152 
481	 0.181270442509276 
482	 0.181731795020811 
483	 0.182154605294447 
484	 0.182599197291786 
485	 0.183088984600985 
486	 0.183677179436222 
487	 0.184345168519618 
488	 0.184900484011934 
489	 0.185472601043946 
490	 0.186059410889069 
491	 0.186593478135105 
492	 0.187075702180736 
493	 0.187652472275221 
494	 0.188360048638131 
495	 0.188935896320124 
496	 0.189512068576225 
497	 0.190096120570075 
498	 0.190657413387065 
499	 0.191312792934674 
500	 0.191984534884463 
501	 0.192615726493945 
502	 0.193210682741984 
503	 0.193862713605374 
504	 0.194522465443163 
505	 0.195115107550069 
506	 0.195778134540166 
507	 0.196434523139999 
508	 0.19704106316193 
509	 0.197632066523838 
510	 0.198265445368593 
511	 0.198950895601933 
512	 0.199659859250393 
513	 0.200297892128934 
514	 0.200882694437911 
515	 0.20146032797498 
516	 0.202103853381869 
517	 0.202781298184646 
518	 0.203507984287653 
519	 0.204257038630416 
520	 0.204857306496382 
521	 0.205475971357196 
522	 0.20616984825882 
523	 0.206888532213094 
524	 0.207568680200405 
525	 0.208192227214852 
526	 0.208795580701634 
527	 0.209538036987681 
528	 0.210324838406399 
529	 0.211054516149077 
530	 0.211655716384812 
531	 0.212326718515417 
532	 0.213053243651296 
533	 0.213789070414596 
534	 0.214527037692566 
535	 0.215277811740854 
536	 0.216029350179918 
537	 0.216759192737989 
538	 0.217515991227672 
539	 0.218304010692387 
540	 0.219115547427455 
541	 0.219935098684604 
542	 0.22074762087176 
543	 0.221564026840276 
544	 0.2223988676983 
545	 0.223171319043339 
546	 0.223944092457125 
547	 0.224769704097061 
548	 0.225653753020914 
549	 0.226553115085002 
550	 0.227449253097435 
551	 0.228336814135934 
552	 0.229203825404181 
553	 0.230066449477442 
554	 0.230934325105478 
555	 0.231814488361838 
556	 0.232691838694936 
557	 0.233554699438927 
558	 0.234405445411766 
559	 0.235321460465496 
560	 0.236200699832491 
561	 0.23701572030429 
562	 0.237828489258989 
563	 0.238630795652565 
564	 0.239419427415994 
565	 0.240205680086092 
566	 0.241029849187458 
567	 0.241888174296175 
568	 0.242730561851444 
569	 0.24349054865433 
570	 0.244304601948187 
571	 0.245130043511636 
572	 0.245900628864082 
573	 0.246585371192726 
574	 0.247252311063034 
575	 0.247934814167179 
576	 0.248638808808129 
577	 0.249363640980015 
578	 0.250080592618938 
579	 0.250759970579057 
580	 0.251366608956109 
581	 0.251892766632724 
582	 0.252392551180664 
583	 0.252921236106106 
584	 0.253450322252773 
585	 0.254027637201653 
586	 0.254647225034951 
587	 0.25525909496958 
588	 0.255758525204848 
589	 0.25626184665373 
590	 0.256837346320362 
591	 0.257299144175385 
592	 0.257798206932655 
593	 0.258371990012302 
594	 0.258972071292911 
595	 0.259651482317578 
596	 0.26030094223346 
597	 0.260857781544936 
598	 0.261385782334542 
599	 0.261924697215845 
600	 0.262433026796975 
601	 0.262859126410676 
602	 0.263289166372198 
603	 0.263634183018385 
604	 0.263890902591643 
605	 0.264192361411858 
606	 0.264437067592875 
607	 0.264671938142958 
608	 0.26496254817555 
609	 0.265274548550738 
610	 0.265549978391923 
611	 0.265797831784835 
612	 0.266084691796009 
613	 0.266332113230579 
614	 0.266561256209353 
615	 0.266804463465372 
616	 0.267082527869227 
617	 0.267350246279219 
618	 0.267580870114114 
619	 0.267777867026374 
620	 0.268005104697216 
621	 0.268270857972462 
622	 0.268550820247425 
623	 0.268783502677915 
624	 0.269049425257736 
625	 0.269325328464248 
626	 0.269561665502047 
627	 0.269805659689909 
628	 0.270052949458963 
629	 0.270291212956482 
630	 0.270503593852522 
631	 0.270694966397547 
632	 0.270878056480529 
633	 0.271059852551246 
634	 0.27122179994477 
635	 0.271470278971702 
636	 0.271749525650459 
637	 0.271910464952113 
638	 0.272067436429763 
639	 0.27221894580613 
640	 0.272362187106166 
641	 0.272526649376715 
642	 0.272707072768114 
643	 0.272867812961164 
644	 0.272979426369761 
645	 0.273095533811206 
646	 0.273204232021742 
647	 0.273331676779786 
648	 0.273551042415405 
649	 0.273781470548875 
650	 0.273943156853829 
651	 0.274030534875437 
652	 0.274252523459601 
653	 0.27443963760809 
654	 0.274552459093903 
655	 0.274652080758359 
656	 0.275016077544754 
657	 0.275296348135343 
658	 0.27533259397851 
659	 0.275438539906862 
660	 0.275542631160319 
661	 0.275649953068168 
662	 0.275767991612225 
663	 0.27581917199222 
664	 0.27588793435015 
665	 0.275982194640056 
666	 0.276018877809624 
667	 0.276147692977526 
668	 0.276297003983854 
669	 0.27639030744255 
670	 0.276456190831218 
671	 0.276641478615034 
672	 0.276858694363737 
673	 0.276929811910676 
674	 0.277069466066447 
675	 0.277263653965929 
676	 0.277461880161862 
677	 0.277613685450772 
678	 0.277681867576484 
679	 0.277811502494284 
680	 0.278112116135518 
681	 0.278343624814751 
682	 0.278518047331254 
683	 0.27871840632211 
684	 0.279054365026146 
685	 0.279351031067594 
686	 0.279752337536437 
687	 0.280357758151026 
688	 0.280931175932392 
689	 0.28129336318124 
690	 0.28153573600741 
691	 0.281810376726952 
692	 0.282123644205416 
693	 0.282496377961438 
694	 0.28292544054759 
695	 0.2833661217778 
696	 0.283807647750552 
697	 0.28418617099488 
698	 0.284517234409875 
699	 0.284961400035031 
700	 0.285363205996373 
701	 0.285703253139245 
702	 0.286027277534768 
703	 0.286329139902167 
704	 0.286667118037564 
705	 0.287021536551757 
706	 0.28727773513784 
707	 0.287603451001945 
708	 0.287925918404329 
709	 0.288166322940817 
710	 0.288342952743448 
711	 0.28854714324999 
712	 0.288793761735101 
713	 0.289051038974531 
714	 0.289200729924678 
715	 0.289242298741415 
716	 0.289232405024692 
717	 0.289284449599962 
718	 0.289449592739946 
719	 0.289777096895545 
720	 0.29018444761892 
721	 0.290401381891854 
722	 0.290381247608124 
723	 0.290292163475049 
724	 0.290393933609899 
725	 0.290543312662358 
726	 0.290661405896455 
727	 0.290752311443107 
728	 0.290915159598954 
729	 0.291071384819996 
730	 0.291215333985144 
731	 0.291354666496461 
732	 0.291501366431196 
733	 0.291598580948256 
734	 0.291650621983243 
735	 0.291698022370208 
736	 0.291795370981587 
737	 0.291900299671566 
738	 0.291996590909479 
739	 0.292115041948633 
740	 0.292241389628357 
741	 0.292367896601467 
742	 0.292491492224895 
743	 0.292632605488557 
744	 0.292743919847689 
745	 0.292840877793348 
746	 0.292962789147511 
747	 0.293050382152919 
748	 0.293128514290702 
749	 0.293214931474374 
750	 0.293314695163194 
751	 0.293501428112353 
752	 0.293691064520884 
753	 0.293805455399667 
754	 0.293887323085332 
755	 0.294082720980235 
756	 0.294365046708481 
757	 0.2946042992657 
758	 0.294551009771977 
759	 0.294527091654796 
760	 0.29515969815136 
761	 0.296960366500313 
762	 0.297418733184242 
763	 0.297162311528599 
764	 0.297020224219818 
765	 0.296790929559923 
766	 0.296516567252449 
767	 0.296263762379458 
768	 0.296095136465499 
769	 0.29603866480132 
770	 0.296049634522596 
771	 0.296091684796278 
772	 0.29614466531091 
773	 0.296254177723253 
774	 0.296390482589382 
775	 0.296536172374263 
776	 0.296725327057452 
777	 0.29682184748559 
778	 0.296869920538667 
779	 0.296957699603288 
780	 0.297118057551807 
781	 0.297269828923735 
782	 0.297400924216096 
783	 0.297538190587795 
784	 0.297631132689805 
785	 0.297726872049779 
786	 0.297836020397998 
787	 0.297914508641279 
788	 0.298032150877173 
789	 0.298192927608514 
790	 0.298367514692111 
791	 0.298487135080441 
792	 0.298549104679961 
793	 0.298633951935683 
794	 0.298824824735368 
795	 0.299009172641855 
796	 0.299142233830118 
797	 0.2992317354375 
798	 0.299328459346779 
799	 0.299415826944564 
800	 0.299516535869873 
801	 0.299654458126279 
802	 0.299852422655244 
803	 0.299988237577297 
804	 0.300089868880724 
805	 0.300210003249845 
806	 0.300324393282171 
807	 0.300438777693384 
808	 0.300596530300753 
809	 0.300817603016407 
810	 0.300904948515538 
811	 0.30091909857588 
812	 0.300921685685693 
813	 0.300960702561649 
814	 0.301044102572845 
815	 0.301197915152686 
816	 0.301421261537046 
817	 0.301670154596083 
818	 0.301822282499966 
819	 0.30193079220036 
820	 0.302053136459109 
821	 0.302047755260716 
822	 0.302025252180865 
823	 0.3021914201765 
824	 0.302660621934086 
825	 0.302779900866869 
826	 0.302805414620458 
827	 0.302867745931085 
828	 0.302925423016656 
829	 0.303093976814369 
830	 0.303290156760184 
831	 0.303444374199096 
832	 0.303570942594878 
833	 0.303738691239552 
834	 0.303839160564922 
835	 0.30383902575245 
836	 0.304019620132868 
837	 0.304234031563612 
838	 0.304375509196875 
839	 0.304400585668232 
840	 0.304500867325803 
841	 0.304616201729579 
842	 0.304742446064424 
843	 0.304915067891693 
844	 0.305088702460129 
845	 0.305208547612221 
846	 0.305266885136611 
847	 0.305325400431904 
848	 0.305364255013754 
849	 0.305478487264702 
850	 0.305682373894524 
851	 0.305743108975082 
852	 0.30575339825453 
853	 0.305784631404352 
854	 0.305892860707276 
855	 0.306062016111852 
856	 0.30632216386296 
857	 0.306534999577357 
858	 0.306532667325949 
859	 0.30650808240566 
860	 0.30660089742658 
861	 0.306809546289738 
862	 0.30700522021138 
863	 0.307128434454772 
864	 0.307082742065516 
865	 0.306940442427956 
866	 0.307029599556619 
867	 0.307305894418245 
868	 0.307597652761186 
869	 0.307774641455044 
870	 0.307885420254023 
871	 0.307855224342529 
872	 0.307806834655425 
873	 0.307877023809126 
874	 0.307942096085169 
875	 0.308105309636438 
876	 0.308347700177017 
877	 0.308562574935373 
878	 0.308638563427444 
879	 0.308590310672883 
880	 0.308563137675173 
881	 0.308773489717239 
882	 0.308998342951541 
883	 0.309226974480555 
884	 0.309396798951134 
885	 0.30938560012548 
886	 0.30944269199519 
887	 0.309488583618568 
888	 0.30950561436517 
889	 0.309655645292947 
890	 0.309686488747575 
891	 0.309772001551377 
892	 0.309978858086318 
893	 0.309792434733803 
894	 0.309495855669536 
895	 0.30930897693293 
896	 0.309383687751442 
897	 0.309618418351336 
898	 0.309928033139496 
899	 0.310207790053517 
900	 0.310373424006191 
901	 0.310433069672973 
902	 0.310773723286029 
903	 0.311134693395167 
904	 0.310948614059015 
905	 0.311062668673906 
906	 0.3111936543333 
907	 0.311131600358029 
908	 0.310882702652193 
909	 0.310967341427386 
910	 0.311230565638264 
911	 0.311402766033493 
912	 0.311262857746035 
913	 0.31100639900967 
914	 0.311138841691743 
915	 0.311724473723291 
916	 0.311963930899162 
917	 0.31217465172591 
918	 0.312392100884345 
919	 0.312539928533956 
920	 0.312422280850096 
921	 0.312505099172099 
922	 0.312647546276032 
923	 0.312648928427352 
924	 0.312804651057502 
925	 0.312956407701866 
926	 0.312759126350013 
927	 0.311992367873338 
928	 0.311515508766932 
929	 0.311088154110633 
930	 0.310494094557466 
931	 0.309666710060684 
932	 0.309468706400334 
933	 0.309049445060961 
934	 0.308622829366571 
935	 0.309235087489691 
936	 0.309986161290816 
937	 0.310885012039947 
938	 0.311448179576476 
939	 0.311103978708118 
940	 0.311809682717248 
941	 0.312259034601699 
942	 0.311932497837094 
943	 0.311453141565123 
944	 0.31157686248421 
945	 0.311476931858127 
946	 0.311110810752785 
947	 0.311601914695494 
948	 0.31137739012515 
949	 0.311295782364392 
950	 0.311807292667033 
951	 0.31225830310268 
952	 0.312852918930248 
953	 0.313006995956178 
954	 0.312703499769489 
955	 0.312949541938438 
956	 0.31371931242422 
957	 0.314165633574758 
958	 0.31392053309382 
959	 0.313761366536259 
960	 0.314344425259216 
961	 0.31465899687977 
962	 0.314420725432024 
963	 0.315583382063316 
964	 0.316050704569985 
965	 0.315881188019423 
966	 0.315659959278582 
967	 0.315786398816558 
968	 0.316163304379041 
969	 0.317021292296752 
970	 0.318023370639593 
971	 0.317101306942232 
972	 0.316381101975654 
973	 0.316526798136667 
974	 0.317229357785446 
975	 0.316873698652446 
976	 0.317092650954455 
977	 0.31778113531596 
978	 0.318276854860815 
979	 0.318339128393303 
980	 0.318194790396446 
981	 0.318246806938506 
982	 0.318641958520239 
983	 0.318520745157768 
984	 0.318430776987752 
985	 0.318456197285214 
986	 0.318546414853963 
987	 0.31889847680083 
988	 0.319083456987916 
989	 0.319185066465914 
990	 0.319379126066009 
991	 0.319362992086947 
992	 0.319238720707249 
993	 0.319175166327201 
994	 0.319295812141257 
995	 0.319480127128176 
996	 0.319386044324331 
997	 0.319173017293406 
998	 0.319085670982881 
999	 0.318759180194435 
1000	 0.318537215506023 
1001	 0.328723506965848 
1002	 0.328731212415729 
1003	 0.328617263657884 
1004	 0.328593494831796 
1005	 0.32871065222272 
1006	 0.328753665461251 
1007	 0.328711483300574 
1008	 0.328780140669469 
1009	 0.328911580877107 
1010	 0.329101062682799 
1011	 0.329389557038726 
1012	 0.32947499967132 
1013	 0.329554446505103 
1014	 0.329635722979826 
1015	 0.329664507252879 
1016	 0.329796353486065 
1017	 0.329923815413947 
1018	 0.330086943698828 
1019	 0.330180737262246 
1020	 0.330279502473131 
1021	 0.330426279491378 
1022	 0.330472017436186 
1023	 0.330638411591827 
1024	 0.330838025470469 
1025	 0.330951067133109 
1026	 0.331102179581846 
1027	 0.331137933327718 
1028	 0.331073804401655 
1029	 0.331026537775812 
1030	 0.330993254401782 
1031	 0.331008517939331 
1032	 0.331047983554756 
1033	 0.33120840235123 
1034	 0.331373961273992 
1035	 0.331571619694562 
1036	 0.331665361277792 
1037	 0.331661927980604 
1038	 0.331698108988913 
1039	 0.331761746672749 
1040	 0.331945127239187 
1041	 0.33196784761485 
1042	 0.331897510987955 
1043	 0.331831269419282 
1044	 0.331835487760278 
1045	 0.331766900916315 
1046	 0.331986457484353 
1047	 0.33217654772728 
1048	 0.332216705323788 
1049	 0.332292423841257 
1050	 0.332271387572298 
1051	 0.332278076966637 
1052	 0.332525786618448 
1053	 0.332736908614615 
1054	 0.332788883798796 
1055	 0.332898057985777 
1056	 0.332959267293447 
1057	 0.332982046000011 
1058	 0.332898865026599 
1059	 0.332952800563394 
1060	 0.333040746424834 
1061	 0.333119925458265 
1062	 0.333342432695411 
1063	 0.333512121699553 
1064	 0.333683651226862 
1065	 0.333784188893193 
1066	 0.33385853013519 
1067	 0.334031766571859 
1068	 0.334091570363016 
1069	 0.334196943471477 
1070	 0.334284775816994 
1071	 0.334319313208524 
1072	 0.334362157388925 
1073	 0.33444620966129 
1074	 0.334456434436822 
1075	 0.334341126538148 
1076	 0.33445772897599 
1077	 0.334528962170064 
1078	 0.334534154609133 
1079	 0.334674922931061 
1080	 0.33477730028523 
1081	 0.334873933882916 
1082	 0.335097380435767 
1083	 0.335254094092746 
1084	 0.335388586010962 
1085	 0.335543419628883 
1086	 0.335748505883844 
1087	 0.335842438491654 
1088	 0.335872175975447 
1089	 0.335950099933974 
1090	 0.33596342049797 
1091	 0.335954229308664 
1092	 0.336039293534648 
1093	 0.336198420492409 
1094	 0.336080291163396 
1095	 0.33601951538959 
1096	 0.336070359853159 
1097	 0.336113641503897 
1098	 0.336175113891447 
1099	 0.336425631396973 
1100	 0.336521203758018 
1101	 0.336462112194706 
1102	 0.336564426170946 
1103	 0.336851651617128 
1104	 0.336932275707947 
1105	 0.336979013813664 
1106	 0.336969489854868 
1107	 0.336784755074924 
1108	 0.33654006685253 
1109	 0.336486599027288 
1110	 0.336600057373755 
1111	 0.336625233854734 
1112	 0.336753314573008 
1113	 0.336781164149724 
1114	 0.336707592023358 
1115	 0.336668179317343 
1116	 0.336616255640456 
1117	 0.336586986012047 
1118	 0.336425291797677 
1119	 0.336484892067403 
1120	 0.336959500245626 
1121	 0.337050963312367 
1122	 0.337044528873144 
1123	 0.337028611504691 
1124	 0.336858395564329 
1125	 0.336172009142001 
1126	 0.336032457025595 
1127	 0.336174553838614 
1128	 0.336216809023614 
1129	 0.336308457004448 
1130	 0.336518413941708 
1131	 0.336841953375768 
1132	 0.337068811576282 
1133	 0.337321368221379 
1134	 0.337627057821662 
1135	 0.338114425473786 
1136	 0.338213236537514 
1137	 0.338187397871354 
1138	 0.338161908400762 
1139	 0.337892988331336 
1140	 0.337479894455615 
1141	 0.33745623989785 
1142	 0.337641345228678 
1143	 0.337806820239154 
1144	 0.338219577518515 
1145	 0.338278823374435 
