Wavelength	09/27/123 at 12:21:17
350	 0.109475567270463 
351	 0.109593642429459 
352	 0.109913823444574 
353	 0.110146944813541 
354	 0.110016839077193 
355	 0.110708611058201 
356	 0.111489580010603 
357	 0.111881375084077 
358	 0.112326126164391 
359	 0.112821501666198 
360	 0.11334635886783 
361	 0.113832751624374 
362	 0.113997174100274 
363	 0.114218214151852 
364	 0.114739825641342 
365	 0.11545056089405 
366	 0.115908854306698 
367	 0.116156046226137 
368	 0.116477540562793 
369	 0.117001600817213 
370	 0.117554029613594 
371	 0.11806419950514 
372	 0.118808778827812 
373	 0.119354578065278 
374	 0.119841384023157 
375	 0.120653627301461 
376	 0.12149525606299 
377	 0.122261387216957 
378	 0.122893244493234 
379	 0.123285584036239 
380	 0.123877552577243 
381	 0.124612352245702 
382	 0.125228693891341 
383	 0.126174266993018 
384	 0.127256449846125 
385	 0.128190238149603 
386	 0.128693521619294 
387	 0.129205151639892 
388	 0.129814521152542 
389	 0.130451551290943 
390	 0.131117646889334 
391	 0.131853643206494 
392	 0.132630918573121 
393	 0.133281510743942 
394	 0.133998239235573 
395	 0.134803011030647 
396	 0.135617045407689 
397	 0.136167305294764 
398	 0.136699755163614 
399	 0.137310599334777 
400	 0.137788943880767 
401	 0.138204340377402 
402	 0.13855614708603 
403	 0.138864367872923 
404	 0.13944224462676 
405	 0.140075226850443 
406	 0.140619819840821 
407	 0.141138522082052 
408	 0.141688340537994 
409	 0.142285801201039 
410	 0.142912289352435 
411	 0.143432107750855 
412	 0.143923005575228 
413	 0.144459892311025 
414	 0.145083903964671 
415	 0.145697478850941 
416	 0.146286692593196 
417	 0.146854239377728 
418	 0.14730390618978 
419	 0.147798908821113 
420	 0.148424368611949 
421	 0.149130560006586 
422	 0.149763591612371 
423	 0.150374078633204 
424	 0.151056659660325 
425	 0.151632354993333 
426	 0.152233442556283 
427	 0.152927420095653 
428	 0.153649236650468 
429	 0.15438574528718 
430	 0.155116650344392 
431	 0.155827943059671 
432	 0.156523201774035 
433	 0.157196147340054 
434	 0.157835063404257 
435	 0.158418810959418 
436	 0.159121709384603 
437	 0.159843359564882 
438	 0.160445645414132 
439	 0.161108278505484 
440	 0.161744000350778 
441	 0.162331037831985 
442	 0.162950288319481 
443	 0.163557916558209 
444	 0.164125723279482 
445	 0.164655354565025 
446	 0.165260075939122 
447	 0.165870469717221 
448	 0.166447671350051 
449	 0.167017385777347 
450	 0.167540059071274 
451	 0.168008328994623 
452	 0.168440620084164 
453	 0.168940728759053 
454	 0.169445016357494 
455	 0.16992271892371 
456	 0.170394729447185 
457	 0.170856495279095 
458	 0.171322307912934 
459	 0.171791919925641 
460	 0.172159596481049 
461	 0.172565868026888 
462	 0.172997667983437 
463	 0.173261056974565 
464	 0.173649784376006 
465	 0.174090855206357 
466	 0.174467946016294 
467	 0.174902927247133 
468	 0.175287477351707 
469	 0.175634197291888 
470	 0.176069375141673 
471	 0.176525959469298 
472	 0.176925047322793 
473	 0.177236112351743 
474	 0.177600423196189 
475	 0.177987982724643 
476	 0.178363653605808 
477	 0.178695723969245 
478	 0.179142099734347 
479	 0.179638293235949 
480	 0.180118188886194 
481	 0.180640556174579 
482	 0.181105054833138 
483	 0.181546868097724 
484	 0.182083243377542 
485	 0.182522513194616 
486	 0.183029397809932 
487	 0.183697502511614 
488	 0.184294042018228 
489	 0.184895901037794 
490	 0.185467469091421 
491	 0.185936760030663 
492	 0.186470582279619 
493	 0.187050335654619 
494	 0.18764575714025 
495	 0.188237225629206 
496	 0.188838457529179 
497	 0.18944804580094 
498	 0.190059698945737 
499	 0.190703970892802 
500	 0.191363469860301 
501	 0.192013321279347 
502	 0.192610847102704 
503	 0.193213286168132 
504	 0.193844317563854 
505	 0.194504517214021 
506	 0.195119906094187 
507	 0.195720387284441 
508	 0.196332833335496 
509	 0.196975793190249 
510	 0.197616620768212 
511	 0.198268710712319 
512	 0.198945640936779 
513	 0.199600510851962 
514	 0.20021253426801 
515	 0.200794910704431 
516	 0.201401448199671 
517	 0.202077930332817 
518	 0.202801675792303 
519	 0.203510081179137 
520	 0.204152912915374 
521	 0.204742269580187 
522	 0.205358993617429 
523	 0.206138912544846 
524	 0.206804010494923 
525	 0.207395360154608 
526	 0.208015883617972 
527	 0.20870184691767 
528	 0.209464107203322 
529	 0.210224557320983 
530	 0.210869352668811 
531	 0.211526245308135 
532	 0.212223302949294 
533	 0.212959092332635 
534	 0.213722596298819 
535	 0.214483490788596 
536	 0.215216608114036 
537	 0.21590804678268 
538	 0.216656465683759 
539	 0.217443906304248 
540	 0.218248350828277 
541	 0.219081766490399 
542	 0.219910467638312 
543	 0.220713649259623 
544	 0.221489731134704 
545	 0.222299954787838 
546	 0.223103354309086 
547	 0.223893879269258 
548	 0.224724612667031 
549	 0.225561954167654 
550	 0.226428825263935 
551	 0.22734653961171 
552	 0.228206419052447 
553	 0.229073902717409 
554	 0.229958946008342 
555	 0.230799373687142 
556	 0.231647932134797 
557	 0.232534006716765 
558	 0.233455887766677 
559	 0.23433932522373 
560	 0.235163249882013 
561	 0.23595829501348 
562	 0.23680977789622 
563	 0.237565487495185 
564	 0.238322408735185 
565	 0.239163601438703 
566	 0.239945332732275 
567	 0.240793111021549 
568	 0.241673198609251 
569	 0.242460866244328 
570	 0.243285454282169 
571	 0.244094474314189 
572	 0.244829003875297 
573	 0.245495107174597 
574	 0.246177549790263 
575	 0.246884929559618 
576	 0.247581555724976 
577	 0.248286892366568 
578	 0.248976588940479 
579	 0.249640011299172 
580	 0.250287807221912 
581	 0.25084742079512 
582	 0.251332639999624 
583	 0.251791817761494 
584	 0.252302752331155 
585	 0.252857678554736 
586	 0.253456737055774 
587	 0.25412940634348 
588	 0.254644799591767 
589	 0.255124956507808 
590	 0.255671195295341 
591	 0.256092497795665 
592	 0.256551153853493 
593	 0.257102916034988 
594	 0.257718495761432 
595	 0.258383215170908 
596	 0.259053138737495 
597	 0.259685559200293 
598	 0.260210691557825 
599	 0.260743813252471 
600	 0.261238904484714 
601	 0.261614459936961 
602	 0.26200232454048 
603	 0.262310743631212 
604	 0.262545272006959 
605	 0.262874455474356 
606	 0.263137747434816 
607	 0.263403127416019 
608	 0.263753212514111 
609	 0.264029200539456 
610	 0.264264448408015 
611	 0.264512241591791 
612	 0.264825534904971 
613	 0.265067484363917 
614	 0.265295787667385 
615	 0.265566751740977 
616	 0.265817197627507 
617	 0.266073664063472 
618	 0.266326365994234 
619	 0.266556863346758 
620	 0.26678109439536 
621	 0.267007400548133 
622	 0.267241636636498 
623	 0.267503552678922 
624	 0.267751048225511 
625	 0.268005999956696 
626	 0.268293203405245 
627	 0.268511291983942 
628	 0.268734391102347 
629	 0.26897639683317 
630	 0.269169581923059 
631	 0.269385437589706 
632	 0.269577348719678 
633	 0.269724880453213 
634	 0.270006216141541 
635	 0.270271162235099 
636	 0.270459235203632 
637	 0.270589111367733 
638	 0.270761055390983 
639	 0.270929688281003 
640	 0.271070353129399 
641	 0.271252405506218 
642	 0.27143188783697 
643	 0.271564215974123 
644	 0.271634552420587 
645	 0.271773759734254 
646	 0.271919230261431 
647	 0.272038636080757 
648	 0.272153023161066 
649	 0.272325469188906 
650	 0.272513862297994 
651	 0.272679130559628 
652	 0.272878080930943 
653	 0.273060446919691 
654	 0.273206063312391 
655	 0.273323634197449 
656	 0.273592951243854 
657	 0.27386614822086 
658	 0.274022923998814 
659	 0.274094029770738 
660	 0.274180843617702 
661	 0.274284833516925 
662	 0.274373360524065 
663	 0.274425896728288 
664	 0.274537874973721 
665	 0.274687410062011 
666	 0.274726827972477 
667	 0.274812180798641 
668	 0.274914801367612 
669	 0.275000909504885 
670	 0.275136325087949 
671	 0.275270584445899 
672	 0.275389548197092 
673	 0.275506902149183 
674	 0.275728943628781 
675	 0.275916078371617 
676	 0.276020964677222 
677	 0.276179957009909 
678	 0.276309013801728 
679	 0.276479017619876 
680	 0.276755369867824 
681	 0.277015218392318 
682	 0.277202518167988 
683	 0.27737251012311 
684	 0.277645844271457 
685	 0.277905210040001 
686	 0.278326262451555 
687	 0.278993122715337 
688	 0.279536445369694 
689	 0.279883708359692 
690	 0.280145644884791 
691	 0.280454373500868 
692	 0.280760747395904 
693	 0.281111648136962 
694	 0.281514925345967 
695	 0.281920527767517 
696	 0.282322908281013 
697	 0.282701094607675 
698	 0.283075736970332 
699	 0.283502699897166 
700	 0.283907617913543 
701	 0.284261725552307 
702	 0.284570904390107 
703	 0.284871938737383 
704	 0.285185643556818 
705	 0.285506565684677 
706	 0.285795307854702 
707	 0.286107266771849 
708	 0.286399166862618 
709	 0.286638127549904 
710	 0.286844158721112 
711	 0.287044864824329 
712	 0.28728328814721 
713	 0.287588932382371 
714	 0.287751208091377 
715	 0.287806518176303 
716	 0.287822410401192 
717	 0.287864499305002 
718	 0.288008096339475 
719	 0.288329076575414 
720	 0.288749837885822 
721	 0.288938183355591 
722	 0.28893786562152 
723	 0.288893812417449 
724	 0.288983885908591 
725	 0.289089774853836 
726	 0.289156316261817 
727	 0.289218569442128 
728	 0.289417940847776 
729	 0.289526131043174 
730	 0.289622847267617 
731	 0.289797896641349 
732	 0.289941724810334 
733	 0.2900085852508 
734	 0.290024684688565 
735	 0.290059049762568 
736	 0.290183028005323 
737	 0.290349631313742 
738	 0.290494644357915 
739	 0.290549041696144 
740	 0.290645436545545 
741	 0.290769145151853 
742	 0.290877379907416 
743	 0.290974482987182 
744	 0.291101579226908 
745	 0.291224221810902 
746	 0.291282882546361 
747	 0.291368150782843 
748	 0.291480042098812 
749	 0.291589176921301 
750	 0.291650123877321 
751	 0.291820066203271 
752	 0.292011894994182 
753	 0.292135020974134 
754	 0.292263652237752 
755	 0.292461684248723 
756	 0.29273048148675 
757	 0.293014693911448 
758	 0.293070234601096 
759	 0.293042772236602 
760	 0.293503286515735 
761	 0.295385660923339 
762	 0.295773732575502 
763	 0.295434818174739 
764	 0.295307104937035 
765	 0.295080074012013 
766	 0.294826910783533 
767	 0.294596837762918 
768	 0.294426075416921 
769	 0.294303870876325 
770	 0.29429147773898 
771	 0.294381247761464 
772	 0.294506830975246 
773	 0.294637878610044 
774	 0.294755670492934 
775	 0.294855855878393 
776	 0.294954339013902 
777	 0.295016915813795 
778	 0.295094853732498 
779	 0.295244688493836 
780	 0.295466262406249 
781	 0.295623960310216 
782	 0.295709835943968 
783	 0.295802509632597 
784	 0.295942359522709 
785	 0.296083103145763 
786	 0.296187992243655 
787	 0.296255060802294 
788	 0.296409626161764 
789	 0.296571952553486 
790	 0.296667600405444 
791	 0.296770664031027 
792	 0.296917001394671 
793	 0.297073872948453 
794	 0.297193132678007 
795	 0.29732319606104 
796	 0.297451319800681 
797	 0.297555380361259 
798	 0.297618424333532 
799	 0.297700296513167 
800	 0.297842282269428 
801	 0.298022587359944 
802	 0.298125991407584 
803	 0.298284521426981 
804	 0.298468260248024 
805	 0.298619866387064 
806	 0.298748769457806 
807	 0.298868637893528 
808	 0.298975378952749 
809	 0.299055381770847 
810	 0.299152533107291 
811	 0.299210976041537 
812	 0.29923729270027 
813	 0.299318558828548 
814	 0.299420704727447 
815	 0.299576644394528 
816	 0.299803781672101 
817	 0.300076354108475 
818	 0.300262316751933 
819	 0.300378965807436 
820	 0.300461591316739 
821	 0.300397346228247 
822	 0.300430001674303 
823	 0.300678061532427 
824	 0.301095626899553 
825	 0.301216885314094 
826	 0.30119840643135 
827	 0.301181840688046 
828	 0.301244332009796 
829	 0.301349529629664 
830	 0.301519652301478 
831	 0.301725126462567 
832	 0.301842317732303 
833	 0.301992924900514 
834	 0.302135348494828 
835	 0.3022282126992 
836	 0.302307889811029 
837	 0.302496180508954 
838	 0.302655165620499 
839	 0.302625747569736 
840	 0.302797665749161 
841	 0.302908307475797 
842	 0.302952897560966 
843	 0.303120751057151 
844	 0.303188914897592 
845	 0.303250342492574 
846	 0.303372867415254 
847	 0.303538092686808 
848	 0.303619489757678 
849	 0.303749386406245 
850	 0.303971012651595 
851	 0.303964028780475 
852	 0.303946997452136 
853	 0.303974728479304 
854	 0.304068295558336 
855	 0.304326338196224 
856	 0.304597030775684 
857	 0.304768929257805 
858	 0.304792321480815 
859	 0.304762616461515 
860	 0.304919991391145 
861	 0.305184452290285 
862	 0.305212464035125 
863	 0.30523114634991 
864	 0.305213891796519 
865	 0.305183922734071 
866	 0.305303805310266 
867	 0.305579577391967 
868	 0.305801077542716 
869	 0.30586846112352 
870	 0.306045988792267 
871	 0.306068233157955 
872	 0.306031885918224 
873	 0.306102302373469 
874	 0.306183679897059 
875	 0.306320348257404 
876	 0.30654044744625 
877	 0.306809842194013 
878	 0.306913013382439 
879	 0.306839750438206 
880	 0.30680367348557 
881	 0.307110872120364 
882	 0.307182724483706 
883	 0.307284566426621 
884	 0.307501648594601 
885	 0.30760391218884 
886	 0.307630989410001 
887	 0.307624515921942 
888	 0.307649267655583 
889	 0.307764994122705 
890	 0.30777845447285 
891	 0.307869080574306 
892	 0.308126680922164 
893	 0.308151444363061 
894	 0.308087794324537 
895	 0.307990386344649 
896	 0.307946812872513 
897	 0.308257896550721 
898	 0.308417340095815 
899	 0.308459555452635 
900	 0.308671077312538 
901	 0.308915919082033 
902	 0.309155973912491 
903	 0.30930983791276 
904	 0.309288999514764 
905	 0.309289198176337 
906	 0.30932195501593 
907	 0.309297298592217 
908	 0.309078177568508 
909	 0.309189703156376 
910	 0.309454956113468 
911	 0.309608247976142 
912	 0.30947214404974 
913	 0.309411887470706 
914	 0.309501838750145 
915	 0.309685343500652 
916	 0.309773523556001 
917	 0.310097854931712 
918	 0.310555441960444 
919	 0.310921190793796 
920	 0.310979780337191 
921	 0.310983720429068 
922	 0.310995499622772 
923	 0.310987820624126 
924	 0.310831571645639 
925	 0.310807723573454 
926	 0.310689783816719 
927	 0.310148070329715 
928	 0.309628302869339 
929	 0.309312382468897 
930	 0.308887556179409 
931	 0.307909074830178 
932	 0.307970937376372 
933	 0.307656155643446 
934	 0.307224199544452 
935	 0.308237997019163 
936	 0.308986496833649 
937	 0.309752349576176 
938	 0.310306134534625 
939	 0.310131890253023 
940	 0.310701162939373 
941	 0.310608528620987 
942	 0.309951613512764 
943	 0.310313942330422 
944	 0.309834802690351 
945	 0.30959620645762 
946	 0.310068371902098 
947	 0.310385704788917 
948	 0.310561454746372 
949	 0.311042408834742 
950	 0.311572372810804 
951	 0.310987949571744 
952	 0.3111193979214 
953	 0.31140836778163 
954	 0.311386529807547 
955	 0.311472554112305 
956	 0.312121612870515 
957	 0.312402997500614 
958	 0.312190329551275 
959	 0.313273137011898 
960	 0.313652866815829 
961	 0.313234648965862 
962	 0.312755657348053 
963	 0.313527798478277 
964	 0.314197660761575 
965	 0.314460080248416 
966	 0.314378396358544 
967	 0.314118483189547 
968	 0.314473405707924 
969	 0.314793595193751 
970	 0.314574026650078 
971	 0.314932740389365 
972	 0.314836300328604 
973	 0.314948195958185 
974	 0.315715049434776 
975	 0.315228046222217 
976	 0.315246915444663 
977	 0.3155388404835 
978	 0.315496509170932 
979	 0.315769915063937 
980	 0.315969557141132 
981	 0.315898482813787 
982	 0.315754573242508 
983	 0.316861212486965 
984	 0.316785282123458 
985	 0.316131132824103 
986	 0.316309374783417 
987	 0.317034761430487 
988	 0.31738663706745 
989	 0.317383781251013 
990	 0.317457643763947 
991	 0.317937907381229 
992	 0.317868303204252 
993	 0.317737088795939 
994	 0.318222512124668 
995	 0.318253897295552 
996	 0.318273295778865 
997	 0.317824718059703 
998	 0.316655658386999 
999	 0.316548583068171 
1000	 0.316798884304529 
1001	 0.327578359032224 
1002	 0.327803805983042 
1003	 0.327768013162657 
1004	 0.32787787042716 
1005	 0.328101865272483 
1006	 0.328213354415601 
1007	 0.328214657994182 
1008	 0.328410070971051 
1009	 0.328651920725659 
1010	 0.328604908723144 
1011	 0.328720424375303 
1012	 0.328889964294698 
1013	 0.328937149653817 
1014	 0.329181067566179 
1015	 0.329280841105031 
1016	 0.329355716013196 
1017	 0.329450918493031 
1018	 0.329569064824039 
1019	 0.32949087634115 
1020	 0.329427267230512 
1021	 0.329392624229133 
1022	 0.329439231759765 
1023	 0.329483851881943 
1024	 0.329592626570309 
1025	 0.329791335904611 
1026	 0.329832549469131 
1027	 0.32992820080059 
1028	 0.329946963837396 
1029	 0.329853712175746 
1030	 0.329917029857471 
1031	 0.330000547916272 
1032	 0.330094706596013 
1033	 0.330232934331691 
1034	 0.330397662745208 
1035	 0.330393524279706 
1036	 0.330290875235752 
1037	 0.330360991359756 
1038	 0.330589181204992 
1039	 0.3308459751776 
1040	 0.330978461894669 
1041	 0.331034075992294 
1042	 0.331057398915276 
1043	 0.331113715292242 
1044	 0.331214824111324 
1045	 0.331428312344427 
1046	 0.331597736447603 
1047	 0.331615192066514 
1048	 0.331650386462213 
1049	 0.331721323614214 
1050	 0.331687245705029 
1051	 0.331825911565504 
1052	 0.331947020862588 
1053	 0.332114526655446 
1054	 0.332377252389546 
1055	 0.332521724364698 
1056	 0.33262627193646 
1057	 0.332606811158987 
1058	 0.33232105764757 
1059	 0.33224539882772 
1060	 0.332193679386328 
1061	 0.33210249430147 
1062	 0.332168172138774 
1063	 0.332425087779524 
1064	 0.332799956575545 
1065	 0.333007962114092 
1066	 0.33321726044188 
1067	 0.333284326371929 
1068	 0.333137151430764 
1069	 0.333247591859776 
1070	 0.333312206257051 
1071	 0.333365971181515 
1072	 0.33350876087399 
1073	 0.333772369131037 
1074	 0.333877707757538 
1075	 0.333951657537547 
1076	 0.33417795888839 
1077	 0.334158611828619 
1078	 0.334048179392544 
1079	 0.334081243556843 
1080	 0.334022305263329 
1081	 0.333956892635422 
1082	 0.334043646139751 
1083	 0.334131640906539 
1084	 0.334243662565353 
1085	 0.334406719252744 
1086	 0.334695033252152 
1087	 0.334818220023133 
1088	 0.334896104612974 
1089	 0.334950187961002 
1090	 0.334834203688281 
1091	 0.334856976411767 
1092	 0.334934083675098 
1093	 0.334990026397061 
1094	 0.335084214843665 
1095	 0.335221285406368 
1096	 0.335325840683881 
1097	 0.335448081878626 
1098	 0.33554599099725 
1099	 0.335617836710022 
1100	 0.335722028478949 
1101	 0.335895351652099 
1102	 0.335924274583985 
1103	 0.33588801813118 
1104	 0.335874762897228 
1105	 0.33571004834115 
1106	 0.335687408277775 
1107	 0.335846602330932 
1108	 0.335919218107147 
1109	 0.335850360649379 
1110	 0.335847348882188 
1111	 0.335874412702607 
1112	 0.335794493919871 
1113	 0.335834385585696 
1114	 0.336130142057199 
1115	 0.336168035037267 
1116	 0.336045467243295 
1117	 0.336007721279342 
1118	 0.335920043125396 
1119	 0.335769075012731 
1120	 0.335524825774355 
1121	 0.335399574096185 
1122	 0.335113401619799 
1123	 0.335031289187319 
1124	 0.335106437027404 
1125	 0.335553035705159 
1126	 0.335716030027797 
1127	 0.336040958973595 
1128	 0.335976704073689 
1129	 0.335409943996522 
1130	 0.335428683624154 
1131	 0.335474198503714 
1132	 0.335632527940748 
1133	 0.336204688952624 
1134	 0.336576685930591 
1135	 0.337057071460411 
1136	 0.337161413633989 
1137	 0.336933449455849 
1138	 0.336966321145793 
1139	 0.336882255531895 
1140	 0.336761789942081 
1141	 0.336875369297167 
1142	 0.337360588729306 
1143	 0.33754546025261 
1144	 0.337574773916642 
