Wavelength	09/27/123 at 12:18:47
350	 9.12920534231977E-02 
351	 0.090800577911426 
352	 9.04400469144725E-02 
353	 8.98589959897698E-02 
354	 8.86889033259378E-02 
355	 8.82393521198633E-02 
356	 8.76697814583734E-02 
357	 8.64276449541244E-02 
358	 8.49666715198866E-02 
359	 8.35822513040213E-02 
360	 8.21207103324129E-02 
361	 8.02974230606957E-02 
362	 7.87555468388798E-02 
363	 7.74820719901148E-02 
364	 7.62860431246135E-02 
365	 7.47887608006872E-02 
366	 7.31110036477415E-02 
367	 7.14301860343877E-02 
368	 6.99364503700214E-02 
369	 0.068581950624677 
370	 6.70402972777576E-02 
371	 6.51494700656061E-02 
372	 6.31357825562056E-02 
373	 0.061351995470096 
374	 5.95979895534702E-02 
375	 5.74369288769377E-02 
376	 5.55466264406309E-02 
377	 5.39285025656738E-02 
378	 5.24927237070984E-02 
379	 0.051148997776004 
380	 4.99807203074998E-02 
381	 4.88624831745733E-02 
382	 4.75486552849585E-02 
383	 0.045765865394267 
384	 0.043885764828561 
385	 4.21891066990718E-02 
386	 4.04850706215352E-02 
387	 3.92742108493712E-02 
388	 3.83946111772935E-02 
389	 3.73892609003307E-02 
390	 0.036255058828963 
391	 3.50900425846403E-02 
392	 3.39815377723183E-02 
393	 3.29714502503909E-02 
394	 3.19168138298797E-02 
395	 3.06974984495804E-02 
396	 2.92965612501845E-02 
397	 0.028241473974018 
398	 2.75064886186402E-02 
399	 2.69912933097582E-02 
400	 2.65982925013911E-02 
401	 2.62996822425739E-02 
402	 0.025957570502544 
403	 2.54452247650758E-02 
404	 2.50019440511863E-02 
405	 2.46410473325954E-02 
406	 2.43063956198523E-02 
407	 2.38493444268092E-02 
408	 2.33784459264626E-02 
409	 2.29879124624895E-02 
410	 2.27249632557863E-02 
411	 2.23344618064342E-02 
412	 2.18571208073852E-02 
413	 2.13994390724489E-02 
414	 2.11468669138186E-02 
415	 2.08514461899513E-02 
416	 2.04503319386374E-02 
417	 1.99670977152342E-02 
418	 1.95022043846902E-02 
419	 1.91012135124088E-02 
420	 1.87872365895893E-02 
421	 1.85729992937036E-02 
422	 1.83418973928738E-02 
423	 0.018113444829598 
424	 1.79670137558863E-02 
425	 1.80017918063032E-02 
426	 1.80153026170818E-02 
427	 0.017940937752094 
428	 1.79557949443322E-02 
429	 1.79834196046828E-02 
430	 1.79657286543541E-02 
431	 1.78738033268264E-02 
432	 1.78122212704881E-02 
433	 1.77924545659149E-02 
434	 1.77821110901672E-02 
435	 1.76932368827804E-02 
436	 1.77551854862147E-02 
437	 0.017844087480409 
438	 1.77650990433774E-02 
439	 1.75805364017664E-02 
440	 1.73657678146954E-02 
441	 1.71711054722888E-02 
442	 1.70151272006299E-02 
443	 1.68665513279915E-02 
444	 1.66911036723214E-02 
445	 1.64821388409225E-02 
446	 1.63669565597571E-02 
447	 1.62857314019803E-02 
448	 1.62139201626893E-02 
449	 1.61817275500773E-02 
450	 1.62298207583321E-02 
451	 1.62821370066043E-02 
452	 1.62745244359783E-02 
453	 1.63718009239472E-02 
454	 1.65432225033479E-02 
455	 1.67418246005321E-02 
456	 1.69130101418715E-02 
457	 0.017127141566064 
458	 1.73883098088708E-02 
459	 0.01768500325119 
460	 1.80202142551041E-02 
461	 1.83640631379548E-02 
462	 1.87204215289849E-02 
463	 1.91284324229043E-02 
464	 1.96044785309922E-02 
465	 2.00869961476138E-02 
466	 2.05105608066822E-02 
467	 2.09010878633872E-02 
468	 2.11790191988029E-02 
469	 2.13406900885862E-02 
470	 2.14541758783429E-02 
471	 2.15078850984988E-02 
472	 2.14989178919749E-02 
473	 2.14225974874619E-02 
474	 2.12659924787209E-02 
475	 2.10565642823491E-02 
476	 2.08206260428705E-02 
477	 2.05864543753413E-02 
478	 2.04194000550417E-02 
479	 2.03482622343131E-02 
480	 2.03660462754471E-02 
481	 2.03838653029896E-02 
482	 2.05068115655098E-02 
483	 2.08136152504609E-02 
484	 2.13443951898817E-02 
485	 2.18680398303263E-02 
486	 2.24749460850206E-02 
487	 2.32372155577919E-02 
488	 2.40058612135993E-02 
489	 2.50040985679817E-02 
490	 2.62845733703996E-02 
491	 2.77986463194283E-02 
492	 2.94251383911065E-02 
493	 3.12859911127759E-02 
494	 3.34534159393218E-02 
495	 3.58228281161864E-02 
496	 3.85664905190234E-02 
497	 4.17246263477081E-02 
498	 4.52678813143593E-02 
499	 4.92121158719935E-02 
500	 5.35500169082586E-02 
501	 5.82586276094863E-02 
502	 0.063305538775764 
503	 6.86900406480886E-02 
504	 7.43948520896387E-02 
505	 8.04478645098283E-02 
506	 8.70350011681252E-02 
507	 9.39685798861368E-02 
508	 0.101188094314648 
509	 0.108825265089339 
510	 0.116787474394685 
511	 0.125048993591384 
512	 0.133614343128853 
513	 0.1423730677343 
514	 0.151420477006339 
515	 0.160803920996912 
516	 0.170454725095974 
517	 0.180162505214014 
518	 0.189729612491163 
519	 0.198927319533978 
520	 0.207784438742482 
521	 0.216518488726232 
522	 0.225199019941284 
523	 0.233650527822923 
524	 0.241918109196772 
525	 0.250045315637857 
526	 0.258039886774139 
527	 0.265793741565055 
528	 0.273188295149646 
529	 0.280130725069084 
530	 0.286737507564469 
531	 0.293268149115849 
532	 0.299601096937582 
533	 0.305584107700213 
534	 0.311412266541372 
535	 0.31694799868207 
536	 0.32219434949304 
537	 0.327223869974398 
538	 0.332007717833517 
539	 0.336638640295789 
540	 0.341148401913721 
541	 0.345424426099551 
542	 0.349461855547989 
543	 0.353264212816661 
544	 0.356869830030291 
545	 0.360229770656443 
546	 0.363376614299903 
547	 0.366379796785902 
548	 0.369338422331889 
549	 0.372153769976999 
550	 0.374797455345398 
551	 0.377293502316759 
552	 0.379717932064392 
553	 0.382031784566044 
554	 0.384229413083298 
555	 0.386370706733852 
556	 0.388345469276854 
557	 0.390150385881015 
558	 0.391828393479531 
559	 0.393523633121242 
560	 0.39507884825423 
561	 0.396472821578099 
562	 0.397838639792787 
563	 0.39906545500781 
564	 0.400216509914987 
565	 0.401370727286588 
566	 0.40252496578913 
567	 0.403650862732866 
568	 0.404720743249295 
569	 0.405707681415806 
570	 0.406579836543672 
571	 0.407494488141394 
572	 0.408507210769734 
573	 0.4094325735346 
574	 0.410377091562614 
575	 0.411378216361283 
576	 0.412432839880241 
577	 0.413551838841948 
578	 0.414684401919102 
579	 0.41578463589224 
580	 0.41679956004329 
581	 0.417944178451921 
582	 0.419130728991311 
583	 0.420194467511946 
584	 0.42119214720732 
585	 0.422234528155289 
586	 0.423337248996876 
587	 0.424434986179599 
588	 0.425061322168571 
589	 0.425703781139973 
590	 0.4267962005585 
591	 0.427862614945755 
592	 0.429012956865081 
593	 0.430212727453765 
594	 0.431313848078617 
595	 0.432441872428323 
596	 0.433456034730046 
597	 0.434299895737911 
598	 0.435139179689232 
599	 0.436034285930902 
600	 0.436837589646496 
601	 0.437380230440994 
602	 0.437983105588809 
603	 0.438478626415711 
604	 0.438759111493638 
605	 0.438845352481159 
606	 0.438858935125429 
607	 0.43881989027586 
608	 0.438720763397506 
609	 0.438652830181445 
610	 0.438559296747883 
611	 0.438477559864564 
612	 0.438519528101606 
613	 0.438535549322035 
614	 0.4385592334885 
615	 0.438618766226931 
616	 0.438618748440518 
617	 0.438768546635247 
618	 0.43898961635125 
619	 0.439065326485541 
620	 0.439183638151694 
621	 0.439369361352337 
622	 0.439590517359506 
623	 0.439766195596312 
624	 0.439989422574075 
625	 0.440273429828886 
626	 0.440589164834814 
627	 0.440862974519041 
628	 0.441168437326668 
629	 0.441470258458862 
630	 0.441600500612121 
631	 0.441871093475764 
632	 0.44214016199216 
633	 0.44225900528531 
634	 0.442468316221643 
635	 0.442619178033099 
636	 0.442658792498068 
637	 0.442619945493409 
638	 0.442604103074229 
639	 0.442544658638469 
640	 0.442389386433579 
641	 0.442166236248193 
642	 0.441995539456048 
643	 0.441845182234611 
644	 0.441631365519017 
645	 0.441353915309612 
646	 0.441031559328364 
647	 0.440718067348726 
648	 0.440494154403885 
649	 0.440280007078379 
650	 0.440052106807304 
651	 0.439818624108796 
652	 0.439635016759163 
653	 0.439484806322382 
654	 0.439180990317078 
655	 0.438447230428824 
656	 0.438023969315276 
657	 0.437750597338969 
658	 0.437357489556366 
659	 0.436646891966572 
660	 0.435943819516569 
661	 0.435240514480048 
662	 0.434426716884847 
663	 0.433553999160673 
664	 0.432753566883052 
665	 0.432023319886209 
666	 0.431187363445454 
667	 0.430440206877824 
668	 0.429765108570525 
669	 0.429124652015678 
670	 0.42855612860521 
671	 0.428183830976595 
672	 0.427943464699497 
673	 0.427673629381465 
674	 0.427429257098829 
675	 0.427274550861553 
676	 0.427252405491094 
677	 0.427390190323391 
678	 0.427576366358471 
679	 0.42788003849763 
680	 0.428423271280326 
681	 0.429280287125876 
682	 0.430340059408488 
683	 0.431657330809177 
684	 0.433353026257316 
685	 0.434965783808524 
686	 0.43672721914525 
687	 0.438925577549021 
688	 0.44140430694293 
689	 0.443468637929346 
690	 0.445316772228675 
691	 0.447292360811597 
692	 0.449314118884367 
693	 0.45147534841535 
694	 0.453815296525076 
695	 0.4562545027235 
696	 0.458680231375334 
697	 0.46102178450412 
698	 0.463365177475511 
699	 0.465871271426453 
700	 0.468484886133796 
701	 0.471078443618933 
702	 0.473547261873434 
703	 0.476110570857761 
704	 0.478708024009976 
705	 0.481280135024946 
706	 0.483725376629037 
707	 0.486259565997543 
708	 0.488850185470146 
709	 0.491463665115526 
710	 0.494166078456794 
711	 0.496896886627727 
712	 0.499703326498953 
713	 0.502659883773869 
714	 0.505629652403469 
715	 0.50845232598183 
716	 0.511231674737168 
717	 0.514239936404381 
718	 0.517728160142825 
719	 0.521587594000731 
720	 0.525402335626133 
721	 0.528922902403723 
722	 0.531909366300769 
723	 0.534981668678326 
724	 0.538682531285323 
725	 0.54248362859546 
726	 0.546108302744476 
727	 0.549602308812741 
728	 0.553129894904216 
729	 0.556637716770061 
730	 0.560110222806761 
731	 0.563502692986532 
732	 0.566743454689531 
733	 0.569831257607499 
734	 0.572807621913169 
735	 0.575709030828844 
736	 0.578690006223735 
737	 0.58153561862615 
738	 0.584175340405144 
739	 0.586755027936843 
740	 0.589217578113121 
741	 0.591614981584352 
742	 0.593959597127494 
743	 0.596087080630304 
744	 0.598062825116197 
745	 0.599937999120917 
746	 0.601727360388617 
747	 0.603385808476251 
748	 0.604931218969739 
749	 0.606372549419932 
750	 0.607708936080038 
751	 0.609035627442319 
752	 0.610311305065926 
753	 0.611479498893571 
754	 0.612539201925193 
755	 0.613667969773041 
756	 0.61482332855528 
757	 0.615882257887494 
758	 0.616794593526712 
759	 0.617847314060488 
760	 0.619712136276544 
761	 0.622782706704457 
762	 0.623833654761864 
763	 0.623805330387626 
764	 0.623879704272379 
765	 0.623759108235013 
766	 0.623564682096769 
767	 0.623480324574425 
768	 0.623638063378227 
769	 0.6239035157719 
770	 0.624232751446174 
771	 0.624614168911682 
772	 0.625067746638679 
773	 0.625545711261491 
774	 0.6259733486595 
775	 0.626357001245062 
776	 0.626859712866962 
777	 0.62729267875271 
778	 0.627662443647723 
779	 0.628045898358117 
780	 0.628583917856034 
781	 0.629063493970682 
782	 0.629431160046985 
783	 0.629762333524185 
784	 0.630247536535919 
785	 0.630772446300851 
786	 0.631218741396244 
787	 0.631529688035845 
788	 0.631962506041489 
789	 0.63243283285077 
790	 0.632838618254992 
791	 0.633258806906981 
792	 0.633739594649781 
793	 0.634187626307724 
794	 0.634506796793451 
795	 0.63491115346813 
796	 0.635323418741811 
797	 0.635708709382757 
798	 0.636088826433249 
799	 0.63645772601127 
800	 0.636865515313164 
801	 0.637318524124364 
802	 0.637747909186326 
803	 0.638138816102493 
804	 0.638529624822507 
805	 0.638941869661809 
806	 0.639287367074283 
807	 0.639585318676565 
808	 0.639940742705613 
809	 0.640415948028369 
810	 0.640607402523912 
811	 0.640775863583489 
812	 0.641048432439056 
813	 0.641367865743501 
814	 0.641764795131421 
815	 0.642100469050688 
816	 0.642370219739797 
817	 0.642906730454863 
818	 0.643378639698646 
819	 0.643756667626962 
820	 0.644074160329366 
821	 0.644196259087264 
822	 0.644325339005093 
823	 0.644666946839615 
824	 0.645297709544836 
825	 0.64565628407245 
826	 0.645833203934974 
827	 0.645906483953647 
828	 0.645911040244202 
829	 0.646127973973623 
830	 0.646439845525434 
831	 0.646723563315927 
832	 0.646975520973754 
833	 0.647328259314648 
834	 0.647618766917013 
835	 0.64778733246948 
836	 0.648233685610842 
837	 0.648626541528475 
838	 0.648900116653748 
839	 0.649130270859296 
840	 0.649478923216939 
841	 0.649832938373828 
842	 0.650141345879674 
843	 0.650412921674328 
844	 0.650743625291333 
845	 0.651074627673688 
846	 0.651354695593865 
847	 0.651589081052584 
848	 0.651848107893771 
849	 0.652122876186104 
850	 0.65239999331548 
851	 0.652694016654778 
852	 0.65301244281699 
853	 0.653269600962751 
854	 0.653439765004362 
855	 0.653768624818272 
856	 0.654253778801779 
857	 0.654685432608644 
858	 0.654835044201634 
859	 0.655050236939583 
860	 0.655423379536935 
861	 0.655822053432712 
862	 0.655972482988328 
863	 0.656156508606942 
864	 0.656280095202351 
865	 0.656370589336938 
866	 0.656747782043638 
867	 0.65712065860772 
868	 0.657453296403485 
869	 0.657769348742698 
870	 0.658082247598783 
871	 0.658266874834796 
872	 0.658445533312601 
873	 0.658760006105691 
874	 0.659009156289329 
875	 0.659180485957871 
876	 0.659379942431285 
877	 0.659706243849357 
878	 0.660011982178496 
879	 0.660193387956973 
880	 0.660299119136129 
881	 0.660532794579985 
882	 0.660878959822025 
883	 0.661080387495582 
884	 0.661123801735787 
885	 0.661302491515798 
886	 0.661390714371456 
887	 0.661555967162748 
888	 0.661878525439218 
889	 0.662105295952142 
890	 0.662074475488233 
891	 0.662032903058158 
892	 0.662171411323601 
893	 0.662279126362624 
894	 0.662224829111695 
895	 0.662147903562821 
896	 0.662229535982412 
897	 0.662241584900858 
898	 0.662263260045154 
899	 0.662535906219113 
900	 0.663189875994653 
901	 0.66355991628419 
902	 0.663680311205808 
903	 0.663725352330507 
904	 0.663880040448746 
905	 0.664191679083206 
906	 0.66437025837685 
907	 0.664266284046221 
908	 0.663914170287923 
909	 0.663641037419247 
910	 0.663700465998467 
911	 0.664078329565734 
912	 0.664404793582397 
913	 0.664085895165645 
914	 0.663843909109377 
915	 0.664132875470094 
916	 0.664378543777739 
917	 0.664469815465051 
918	 0.664502664630494 
919	 0.664549342807481 
920	 0.664503068463462 
921	 0.664418850808458 
922	 0.664107976603503 
923	 0.663482993824396 
924	 0.663022270279097 
925	 0.662656799695236 
926	 0.662063155905644 
927	 0.6608818190319 
928	 0.659231333121389 
929	 0.657979699664722 
930	 0.656868292381151 
931	 0.654884691866461 
932	 0.6527418084128 
933	 0.650766062921162 
934	 0.649354022543371 
935	 0.648787853606159 
936	 0.648887042851996 
937	 0.648990879023798 
938	 0.648892975349663 
939	 0.648721477141193 
940	 0.648095648988806 
941	 0.647166278239432 
942	 0.645853394132586 
943	 0.643970977837814 
944	 0.643058523018479 
945	 0.641969858902283 
946	 0.640305121997958 
947	 0.639039005564619 
948	 0.63710191827802 
949	 0.635632945353919 
950	 0.634953163854979 
951	 0.633874685545739 
952	 0.632304968275221 
953	 0.630200038100456 
954	 0.628148862485629 
955	 0.627487293290767 
956	 0.626556390876286 
957	 0.625295542969609 
958	 0.624010398118956 
959	 0.622899571534253 
960	 0.622100311840531 
961	 0.621881055788806 
962	 0.622157154474583 
963	 0.622176019091774 
964	 0.622060531426239 
965	 0.621775943466798 
966	 0.621336124862498 
967	 0.620889552063802 
968	 0.620918848281344 
969	 0.621379833183821 
970	 0.622093828396971 
971	 0.623197676912044 
972	 0.622720638990366 
973	 0.622003305870945 
974	 0.62244227064611 
975	 0.622067159216498 
976	 0.622286021660096 
977	 0.622941814506085 
978	 0.623450417837187 
979	 0.623734569906268 
980	 0.624250815085032 
981	 0.624988533684813 
982	 0.625691183567626 
983	 0.625962298158745 
984	 0.626225474745417 
985	 0.626345185682247 
986	 0.626302784571597 
987	 0.627299695321866 
988	 0.628303483417113 
989	 0.628981165406012 
990	 0.629463437482779 
991	 0.630422297833179 
992	 0.630940567413298 
993	 0.63134846305415 
994	 0.632211090001455 
995	 0.632810967078602 
996	 0.633436454175551 
997	 0.634042615801838 
998	 0.634493827285423 
999	 0.634853166464262 
1000	 0.63503036772531 
1001	 0.648764614364101 
1002	 0.649658231996455 
1003	 0.650600234438429 
1004	 0.651564052274942 
1005	 0.652433145100396 
1006	 0.653361278004257 
1007	 0.65435374155815 
1008	 0.655421698111174 
1009	 0.656339831834307 
1010	 0.657405178969693 
1011	 0.65847896275589 
1012	 0.659267954153447 
1013	 0.66028314539581 
1014	 0.661297503178554 
1015	 0.66220962206699 
1016	 0.663334828633992 
1017	 0.664509199600796 
1018	 0.665752766322095 
1019	 0.666901025912767 
1020	 0.66800269624653 
1021	 0.669154560734046 
1022	 0.670119319626412 
1023	 0.670929456684225 
1024	 0.67190703041949 
1025	 0.672879735307152 
1026	 0.673912800146921 
1027	 0.675106219133736 
1028	 0.676077733146125 
1029	 0.677041877703079 
1030	 0.677837405992438 
1031	 0.678598842858564 
1032	 0.679116925204066 
1033	 0.680094856579144 
1034	 0.681087029556217 
1035	 0.682087513059257 
1036	 0.683200969672919 
1037	 0.684091311026261 
1038	 0.685120313744899 
1039	 0.686159174003238 
1040	 0.687035967956027 
1041	 0.687925466919397 
1042	 0.688640051431508 
1043	 0.689314958807568 
1044	 0.690122858483052 
1045	 0.691070036791734 
1046	 0.691990572200199 
1047	 0.69286110275494 
1048	 0.693726819304319 
1049	 0.694465699251784 
1050	 0.69528878741494 
1051	 0.69609217538606 
1052	 0.696876133738047 
1053	 0.697629619390987 
1054	 0.698219383115272 
1055	 0.698948376430139 
1056	 0.699383535323915 
1057	 0.699800696166097 
1058	 0.700176896120799 
1059	 0.700593173357746 
1060	 0.700861362788254 
1061	 0.701175376021921 
1062	 0.701889008925698 
1063	 0.702537650387423 
1064	 0.703217883300558 
1065	 0.704051426974448 
1066	 0.704619747540392 
1067	 0.704866489630956 
1068	 0.70498871586388 
1069	 0.705398133067175 
1070	 0.705766668333384 
1071	 0.70622554886148 
1072	 0.706604741360532 
1073	 0.707050896827769 
1074	 0.707219968696898 
1075	 0.707194935870297 
1076	 0.707355656248522 
1077	 0.707171551677533 
1078	 0.70713062835375 
1079	 0.707391049762764 
1080	 0.707513305193377 
1081	 0.70775815408997 
1082	 0.708128117249634 
1083	 0.708283672628334 
1084	 0.708291277913055 
1085	 0.708257902385151 
1086	 0.708124039595762 
1087	 0.707972637617641 
1088	 0.707644421385425 
1089	 0.707498198692921 
1090	 0.707430919372693 
1091	 0.707234923138445 
1092	 0.707085460114341 
1093	 0.707033606324037 
1094	 0.70695607406233 
1095	 0.706848912798773 
1096	 0.706697086212428 
1097	 0.706636243128347 
1098	 0.706400869838611 
1099	 0.705930904572511 
1100	 0.705684101800613 
1101	 0.705496742229818 
1102	 0.705256854975684 
1103	 0.705189270250884 
1104	 0.704950377019529 
1105	 0.704557042442322 
1106	 0.704202920345644 
1107	 0.703879700447273 
1108	 0.703345488288378 
1109	 0.702882401951985 
1110	 0.70220851199948 
1111	 0.701709702353295 
1112	 0.70124409910923 
1113	 0.700575374479849 
1114	 0.699727243513725 
1115	 0.699197539577005 
1116	 0.698654382015736 
1117	 0.698073818533866 
1118	 0.698091831789656 
1119	 0.69748905573448 
1120	 0.696408686064968 
1121	 0.695157640045997 
1122	 0.693312158775659 
1123	 0.691627921725976 
1124	 0.689860045630568 
1125	 0.68787509801907 
1126	 0.68615126985516 
1127	 0.685376806699798 
1128	 0.682911315051723 
